1695386909.00
64.000000
-0.00
-0.00
-0.00
-0.00
-0.00
-0.00
-0.00
-0.00
-0.00
-0.00
0.00
0.01
0.01
-0.00
-0.03
-0.05
-0.05
0.00
0.13
0.36
0.66
1.01
1.37
1.72
2.06
2.40
2.79
3.24
3.80
4.42
5.06
5.66
6.20
6.68
7.15
7.68
8.31
9.14
10.09
11.04
11.88
12.56
13.14
13.76
14.65
15.96
17.91
20.32
22.90
25.38
27.58
29.57
31.68
34.32
37.81
42.54
48.15
54.10
59.83
64.97
69.58
74.14
79.34
85.71
93.76
103.00
112.62
121.73
129.77
136.75
143.30
150.75
157.77
166.64
177.95
191.79
206.97
220.57
228.25
225.36
208.53
176.87
132.76
80.05
23.07
-34.94
-92.44
-149.16
-205.23
-260.37
-313.74
-363.87
-409.83
-450.91
-486.50
-515.74
-537.23
-549.22
-549.96
-538.37
-514.21
-478.67
-433.87
-382.42
-326.98
-269.82
-212.66
-156.76
-103.15
-52.67
-6.27
35.19
71.04
100.98
125.14
143.98
158.22
168.56
175.66
179.96
181.76
181.29
178.78
174.52
168.86
162.20
154.92
147.33
139.67
132.04
124.46
116.88
109.22
101.43
93.56
85.74
78.20
71.16
64.74
58.90
53.44
48.05
42.49
36.69
30.82
25.26
20.40
16.50
13.48
10.97
8.41
5.31
1.54
-2.67
-6.71
-9.97
-12.05
-12.97
-13.19
-13.36
-14.14
-16.03
-19.27
-23.71
-28.59
-32.48
-33.48
-29.92
-21.12
-8.05
6.88
20.62
30.67
35.95
36.99
35.43
33.22
31.81
31.73
32.71
33.97
34.61
34.03
32.07
29.04
25.52
22.07
18.85
15.72
12.44
9.06
6.02
3.96
3.31
3.90
4.96
5.51
4.94
3.27
1.09
-0.72
-1.54
-1.28
-0.35
0.62
1.06
0.72
-0.27
-1.58
-2.82
-3.69
-4.01
-3.63
-2.50
-0.64
1.80
4.53
7.15
9.27
10.66
11.25
11.19
10.76
10.23
9.80
9.55
9.43
9.41
9.41
9.42
9.51
9.78
10.27
10.94
11.60
11.95
11.72
10.77
8.97
6.44
3.37
0.03
-3.35
-6.59
-9.52
-12.04
-14.10
-15.72
-16.90
-17.68
-18.05
-17.97
-17.40
-16.47
-15.35
-14.27
-13.43
-12.83
-12.38
-11.88
-11.17
-10.24
-9.17
-8.14
-7.37
-6.97
-6.98
-7.32
-7.78
-8.03
-7.73
-6.56
-4.39
-1.32
2.26
5.81
8.77
10.74
11.54
11.27
10.15
8.50
6.58
4.60
2.70
0.97
-0.52
-1.71
-2.61
-3.19
-3.45
-3.36
-2.88
-1.97
-0.66
0.96
2.74
4.45
5.89
6.90
7.41
7.38
6.92
6.26
5.60
5.03
4.54
3.93
3.02
1.67
-0.05
-1.93
-3.69
-5.11
-6.13
-6.88
-7.55
-8.34
-9.32
-10.47
-11.71
-12.90
-13.98
-14.93
-15.82
-16.82
-18.14
-19.95
-22.31
-24.95
-27.34
-28.69
-28.25
-25.51
-20.43
-13.48
-5.46
2.66
10.08
16.26
21.01
24.37
26.52
27.65
27.83
27.10
25.47
23.06
20.13
17.10
14.37
12.29
11.00
10.47
10.55
11.07
11.96
13.14
14.54
15.96
17.14
17.82
17.82
17.15
15.94
14.37
12.60
10.66
8.58
6.35
4.03
1.66
-0.73
-3.19
-5.79
-8.54
-11.34
-13.96
-16.12
-17.65
-18.54
-18.98
-19.23
-19.53
-20.02
-20.78
-21.85
-23.27
-25.08
-27.16
-29.18
-30.53
-30.53
-28.61
-24.58
-18.70
-11.58
-4.04
3.22
9.65
14.96
19.02
21.77
23.25
23.50
22.67
20.93
18.50
15.62
12.55
9.58
7.04
5.19
4.21
4.07
4.56
5.44
6.47
7.52
8.54
9.48
10.23
10.56
10.21
9.06
7.16
4.79
2.33
0.04
-2.00
-3.93
-5.97
-8.22
-10.60
-12.86
-14.75
-16.17
-17.19
-18.06
-19.01
-20.18
-21.60
-23.28
-25.22
-27.40
-29.69
-31.66
-32.68
-32.03
-29.19
-24.10
-17.18
-9.22
-1.07
6.56
13.24
18.74
23.01
26.00
27.70
28.15
27.47
25.83
23.47
20.62
17.53
14.46
11.73
9.61
8.31
7.91
8.32
9.38
10.87
12.59
14.37
16.00
17.23
17.83
17.60
16.51
14.68
12.31
9.63
6.82
3.99
1.21
-1.49
-4.11
-6.66
-9.19
-11.72
-14.18
-16.42
-18.25
-19.55
-20.34
-20.84
-21.35
-22.23
-23.69
-25.76
-28.25
-30.69
-32.47
-32.88
-31.40
-27.76
-22.13
-15.00
-7.10
0.82
8.16
14.46
19.50
23.17
25.48
26.49
26.31
25.10
23.06
20.45
17.59
14.84
12.52
10.84
9.91
9.68
10.03
10.83
11.92
13.17
14.39
15.43
16.13
16.37
16.11
15.35
14.12
12.42
10.30
7.88
5.31
2.84
0.62
-1.27
-2.94
-4.60
-6.46
-8.59
-10.87
-13.02
-14.77
-15.97
-16.72
-17.29
-18.09
-19.46
-21.57
-24.32
-27.33
-29.98
-31.54
-31.31
-28.85
-24.12
-17.50
-9.74
-1.70
5.87
12.44
17.74
21.72
24.39
25.81
26.04
25.20
23.49
21.15
18.43
15.59
12.82
10.35
8.34
6.95
6.31
6.43
7.28
8.77
10.76
13.08
15.48
17.63
19.12
19.55
18.69
16.52
13.32
9.56
5.70
2.07
-1.25
-4.38
-7.46
-10.53
-13.44
-15.99
-18.00
-19.48
-20.65
-21.80
-23.22
-25.06
-27.31
-29.80
-32.22
-34.15
-35.07
-34.47
-32.00
-27.53
-21.32
-13.98
-6.27
1.04
7.37
12.42
16.17
18.77
20.39
21.13
20.96
19.86
17.85
15.12
12.03
8.98
6.36
4.35
3.04
2.41
2.44
3.13
4.38
5.96
7.52
8.64
9.05
8.68
7.72
6.49
5.25
4.14
3.09
1.89
0.32
-1.77
-4.36
-7.26
-10.19
-12.86
-15.12
-16.95
-18.53
-20.15
-22.13
-24.61
-27.55
-30.59
-33.11
-34.33
-33.54
-30.32
-24.71
-17.27
-8.93
-0.67
6.72
12.83
17.59
21.14
23.59
24.98
25.31
24.58
22.92
20.59
17.88
15.11
12.53
10.34
8.74
7.89
7.87
8.64
9.97
11.57
13.10
14.32
15.04
15.18
14.70
13.63
12.03
10.08
7.95
5.78
3.62
1.35
-1.20
-4.14
-7.43
-10.84
-14.03
-16.70
-18.74
-20.24
-21.51
-22.94
-24.85
-27.41
-30.42
-33.39
-35.57
-36.13
-34.40
-30.15
-23.65
-15.59
-6.89
1.56
9.13
15.53
20.67
24.60
27.29
28.69
28.74
27.46
25.11
22.11
18.95
16.09
13.78
12.12
11.03
10.44
10.33
10.73
11.63
12.90
14.29
15.44
16.02
15.91
15.15
13.91
12.36
10.58
8.55
6.20
3.49
0.45
-2.75
-5.95
-8.91
-11.48
-13.56
-15.16
-16.41
-17.53
-18.79
-20.40
-22.47
-24.84
-27.12
-28.74
-29.05
-27.51
-23.85
-18.16
-10.93
-2.94
4.98
12.06
17.87
22.24
25.26
27.08
27.84
27.59
26.36
24.24
21.42
18.22
14.97
12.00
9.50
7.61
6.35
5.74
5.73
6.24
7.13
8.16
9.05
9.55
9.50
8.82
7.57
5.86
3.79
1.43
-1.20
-4.06
-7.05
-10.03
-12.80
-15.24
-17.34
-19.25
-21.20
-23.43
-26.10
-29.14
-32.25
-34.92
-36.47
-36.28
-33.97
-29.53
-23.33
-16.02
-8.36
-0.97
5.71
11.41
16.03
19.49
21.71
22.64
22.30
20.76
18.20
14.94
11.36
7.93
5.12
3.23
2.37
2.42
3.09
4.10
5.25
6.46
7.69
8.85
9.75
10.09
9.64
8.31
6.20
3.55
0.66
-2.25
-5.05
-7.73
-10.34
-12.96
-15.65
-18.47
-21.52
-24.86
-28.43
-31.94
-34.83
-36.31
-35.64
-32.37
-26.54
-18.78
-10.08
-1.47
6.24
12.61
17.58
21.26
23.77
25.15
25.38
24.48
22.56
19.91
16.90
13.96
11.44
9.56
8.38
7.85
7.86
8.28
8.99
9.85
10.73
11.47
11.93
11.99
11.57
10.60
9.07
6.96
4.37
1.45
-1.62
-4.64
-7.45
-9.98
-12.22
-14.26
-16.25
-18.40
-20.89
-23.85
-27.16
-30.41
-32.95
-33.96
-32.80
-29.15
-23.18
-15.50
-6.98
1.50
9.22
15.74
20.85
24.51
26.73
27.56
27.10
25.53
23.16
20.35
17.44
14.69
12.27
10.28
8.83
8.03
7.99
8.69
9.96
11.46
12.80
13.62
13.69
13.04
11.80
10.21
8.44
6.58
4.60
2.47
0.15
-2.32
-4.87
-7.39
-9.80
-12.05
-14.16
-16.16
-18.07
-19.93
-21.80
-23.74
-25.77
-27.75
-29.30
-29.82
-28.65
-25.31
-19.72
-12.32
-3.93
4.49
12.16
18.57
23.55
27.13
29.36
30.28
29.91
28.38
25.93
22.90
19.67
16.60
13.93
11.84
10.40
9.63
9.49
9.91
10.81
12.05
13.44
14.73
15.61
15.81
15.16
13.71
11.70
9.52
7.51
5.81
4.32
2.75
0.77
-1.82
-4.94
-8.33
-11.57
-14.36
-16.53
-18.15
-19.42
-20.63
-22.04
-23.88
-26.27
-29.10
-32.02
-34.38
-35.40
-34.41
-31.05
-25.44
-18.19
-10.16
-2.25
4.87
10.79
15.38
18.64
20.63
21.43
21.10
19.80
17.77
15.29
12.63
10.03
7.65
5.61
4.04
3.09
2.92
3.56
4.87
6.53
8.14
9.34
9.92
9.84
9.17
8.05
6.56
4.77
2.69
0.36
-2.19
-4.91
-7.73
-10.56
-13.28
-15.76
-17.91
-19.73
-21.29
-22.78
-24.44
-26.49
-28.98
-31.69
-34.05
-35.26
-34.46
-31.13
-25.24
-17.36
-8.44
0.43
8.40
15.00
20.11
23.86
26.43
27.95
28.44
27.92
26.44
24.15
21.28
18.16
15.12
12.46
10.39
9.05
8.48
8.64
9.40
10.57
11.89
13.12
14.01
14.37
14.08
13.13
11.60
9.69
7.65
5.67
3.80
1.91
-0.25
-2.90
-6.07
-9.57
-13.00
-15.95
-18.15
-19.60
-20.55
-21.39
-22.55
-24.31
-26.72
-29.58
-32.39
-34.41
-34.90
-33.23
-29.15
-22.88
-15.06
-6.57
1.73
9.20
15.50
20.57
24.39
26.96
28.19
28.01
26.48
23.90
20.73
17.48
14.57
12.22
10.47
9.25
8.52
8.27
8.53
9.30
10.48
11.85
13.13
14.03
14.33
13.95
12.92
11.40
9.58
7.60
5.54
3.41
1.16
-1.20
-3.63
-6.06
-8.41
-10.63
-12.67
-14.51
-16.15
-17.58
-18.84
-20.05
-21.43
-23.22
-25.58
-28.47
-31.49
-33.94
-34.95
-33.74
-29.91
-23.59
-15.44
-6.41
2.49
10.47
17.09
22.20
25.85
28.14
29.21
29.15
28.08
26.14
23.52
20.45
17.21
14.10
11.40
9.32
8.01
7.47
7.63
8.33
9.37
10.56
11.74
12.75
13.46
13.73
13.43
12.49
10.95
8.93
6.65
4.30
2.01
-0.24
-2.56
-5.08
-7.83
-10.73
-13.57
-16.13
-18.25
-19.92
-21.24
-22.38
-23.63
-25.23
-27.41
-30.27
-33.65
-37.07
-39.71
-40.57
-38.76
-33.77
-25.69
-15.30
-3.83
7.30
16.94
24.39
29.55
32.74
34.47
35.14
34.94
33.83
31.75
28.78
25.19
21.38
17.75
14.47
11.56
8.93
6.59
4.72
3.59
3.37
4.01
5.13
6.18
6.65
6.25
4.99
3.11
0.94
-1.25
-3.30
-5.23
-7.14
-9.22
-11.60
-14.36
-17.37
-20.40
-23.12
-25.28
-26.81
-27.90
-28.92
-30.29
-32.31
-35.01
-38.05
-40.74
-42.21
-41.59
-38.30
-32.24
-23.84
-14.00
-3.82
5.69
13.83
20.24
24.93
28.06
29.83
30.39
29.83
28.25
25.81
22.78
19.49
16.26
13.35
10.87
8.93
7.58
6.90
6.94
7.73
9.13
10.89
12.70
14.20
15.09
15.18
14.41
12.88
10.83
8.54
6.23
3.97
1.68
-0.83
-3.69
-6.88
-10.23
-13.48
-16.38
-18.78
-20.65
-22.12
-23.40
-24.80
-26.60
-29.01
-32.01
-35.28
-38.15
-39.76
-39.31
-36.23
-30.43
-22.32
-12.71
-2.58
7.14
15.77
22.92
28.41
32.24
34.41
35.02
34.25
32.37
29.74
26.71
23.55
20.44
17.51
14.93
12.94
11.75
11.50
12.13
13.42
15.01
16.55
17.79
18.55
18.76
18.35
17.31
15.65
13.46
10.91
8.23
5.65
3.26
1.03
-1.18
-3.59
-6.35
-9.44
-12.66
-15.71
-18.30
-20.28
-21.71
-22.81
-23.87
-25.21
-27.04
-29.49
-32.46
-35.60
-38.26
-39.59
-38.77
-35.25
-29.01
-20.56
-10.84
-0.92
8.28
16.15
22.41
27.01
30.01
31.49
31.51
30.19
27.74
24.49
20.82
17.10
13.61
10.55
7.99
6.04
4.79
4.33
4.67
5.65
7.00
8.35
9.39
9.92
9.91
9.41
8.53
7.35
5.88
4.09
1.93
-0.63
-3.61
-6.92
-10.39
-13.80
-16.88
-19.42
-21.40
-22.98
-24.46
-26.23
-28.58
-31.57
-34.91
-37.93
-39.69
-39.22
-35.88
-29.60
-21.01
-11.19
-1.36
7.51
14.97
20.98
25.72
29.37
31.88
33.07
32.79
31.02
28.02
24.24
20.19
16.36
13.10
10.60
8.95
8.16
8.21
9.00
10.39
12.16
14.01
15.58
16.56
16.74
16.07
14.69
12.87
10.95
9.17
7.65
6.26
4.73
2.73
0.02
-3.41
-7.30
-11.22
-14.72
-17.46
-19.36
-20.59
-21.58
-22.83
-24.82
-27.80
-31.64
-35.80
-39.33
-41.12
-40.23
-36.21
-29.26
-20.17
-10.05
0.01
9.18
16.99
23.24
27.87
30.90
32.37
32.36
31.07
28.75
25.71
22.26
18.66
15.22
12.19
9.81
8.26
7.61
7.81
8.69
10.04
11.57
13.00
14.02
14.37
13.88
12.53
10.44
7.89
5.19
2.59
0.18
-2.13
-4.56
-7.30
-10.37
-13.63
-16.83
-19.66
-21.94
-23.67
-25.02
-26.30
-27.85
-29.89
-32.38
-34.97
-36.99
-37.63
-36.21
-32.34
-26.14
-18.17
-9.28
-0.33
7.96
15.13
20.95
25.34
28.28
29.73
29.66
28.09
25.20
21.36
17.09
13.01
9.65
7.37
6.28
6.24
6.98
8.19
9.65
11.16
12.60
13.85
14.78
15.23
15.07
14.23
12.72
10.67
8.25
5.65
2.96
0.24
-2.50
-5.24
-7.95
-10.58
-13.11
-15.54
-17.85
-20.02
-21.93
-23.48
-24.64
-25.51
-26.36
-27.55
-29.44
-32.18
-35.63
-39.21
-42.01
-42.99
-41.25
-36.38
-28.58
-18.69
-7.84
2.81
12.37
20.37
26.65
31.23
34.16
35.53
35.44
34.08
31.79
28.96
25.98
23.17
20.76
18.90
17.70
17.25
17.58
18.64
20.24
22.07
23.74
24.91
25.33
24.90
23.67
21.80
19.53
17.09
14.72
12.57
10.64
8.81
6.87
4.67
2.13
-0.61
-3.33
-5.75
-7.70
-9.16
-10.31
-11.40
-12.71
-14.38
-16.40
-18.60
-20.73
-22.56
-24.00
-25.14
-26.24
-27.62
-29.59
-32.31
-35.66
-39.26
-42.39
-44.17
-43.68
-40.31
-33.88
-24.81
-14.03
-2.71
8.03
17.32
24.71
30.06
33.46
35.08
35.14
33.89
31.63
28.69
25.45
22.29
19.53
17.35
15.86
15.06
14.93
15.43
16.50
17.99
19.67
21.25
22.42
22.94
22.76
21.99
20.85
19.57
18.27
16.99
15.60
13.99
12.09
9.94
7.65
5.45
3.54
2.10
1.17
0.69
0.49
0.33
-0.02
-0.73
-1.85
-3.26
-4.77
-6.16
-7.38
-8.47
-9.62
-11.05
-12.87
-15.01
-17.27
-19.39
-21.19
-22.65
-23.94
-25.33
-27.10
-29.44
-32.37
-35.73
-39.11
-41.89
-43.32
-42.61
-39.22
-33.03
-24.48
-14.46
-4.08
5.64
14.01
20.76
25.90
29.56
31.84
32.74
32.28
30.57
27.88
24.57
21.07
17.75
14.89
12.65
11.13
10.37
10.38
11.11
12.40
14.02
15.65
16.96
17.72
17.79
17.20
16.10
14.67
13.11
11.53
9.92
8.23
6.41
4.43
2.34
0.23
-1.80
-3.65
-5.30
-6.74
-7.98
-9.02
-9.88
-10.58
-11.18
-11.76
-12.46
-13.32
-14.40
-15.67
-17.08
-18.54
-19.98
-21.29
-22.45
-23.45
-24.39
-25.40
-26.70
-28.50
-30.95
-34.00
-37.30
-40.18
-41.74
-41.09
-37.62
-31.26
-22.54
-12.47
-2.23
7.19
15.17
21.48
26.14
29.27
30.91
31.12
29.99
27.78
24.92
21.85
18.98
16.52
14.55
13.03
11.94
11.32
11.25
11.78
12.89
14.45
16.18
17.79
18.99
19.59
19.54
18.93
17.93
16.71
15.36
13.86
12.15
10.16
7.89
5.47
3.09
0.92
-0.95
-2.57
-4.05
-5.51
-6.99
-8.43
-9.73
-10.83
-11.74
-12.60
-13.56
-14.72
-16.11
-17.64
-19.19
-20.65
-21.95
-23.10
-24.20
-25.37
-26.82
-28.77
-31.40
-34.68
-38.24
-41.35
-43.08
-42.54
-39.21
-33.14
-24.94
-15.59
-6.05
2.89
10.76
17.35
22.57
26.38
28.74
29.71
29.40
28.01
25.78
23.00
19.96
16.94
14.18
11.89
10.22
9.26
9.07
9.62
10.83
12.50
14.33
16.03
17.32
18.07
18.24
17.88
17.06
15.85
14.34
12.58
10.69
8.77
6.87
5.04
3.23
1.36
-0.63
-2.74
-4.88
-6.92
-8.69
-10.13
-11.24
-12.15
-13.03
-14.02
-15.23
-16.65
-18.24
-19.88
-21.47
-22.91
-24.18
-25.35
-26.58
-28.13
-30.23
-32.99
-36.25
-39.52
-42.03
-42.90
-41.39
-37.14
-30.35
-21.69
-12.10
-2.56
6.18
13.64
19.64
24.12
27.10
28.67
28.95
28.15
26.51
24.26
21.63
18.80
15.97
13.36
11.23
9.82
9.31
9.74
11.03
12.92
15.07
17.10
18.67
19.61
19.89
19.67
19.16
18.54
17.87
17.10
16.07
14.71
13.02
11.09
9.07
7.04
5.01
2.96
0.85
-1.32
-3.46
-5.51
-7.40
-9.15
-10.79
-12.39
-14.00
-15.60
-17.17
-18.70
-20.22
-21.90
-23.93
-26.55
-29.88
-33.80
-37.90
-41.50
-43.80
-44.05
-41.82
-37.08
-30.27
-22.13
-13.52
-5.20
2.31
8.76
14.06
18.18
21.08
22.70
23.08
22.35
20.81
18.80
16.64
14.56
12.69
11.17
10.15
9.86
10.46
12.01
14.36
17.19
20.05
22.56
24.38
25.36
25.47
24.76
23.37
21.47
19.23
16.81
14.26
11.55
8.51
5.01
0.97
-3.55
-8.33
-13.14
-17.74
-21.99
-25.90
-29.53
-33.04
-36.60
-40.27
-43.95
-47.21
-49.38
-49.66
-47.43
-42.44
-35.03
-25.96
-16.24
-6.72
1.98
9.56
15.90
20.93
24.55
26.67
27.24
26.32
24.09
20.84
16.91
12.73
8.72
5.28
2.68
1.02
0.22
0.10
0.45
1.11
2.01
3.09
4.25
5.34
6.11
6.25
5.51
3.78
1.14
-2.18
-5.82
-9.42
-12.78
-15.86
-18.81
-21.86
-25.29
-29.27
-33.85
-38.79
-43.57
-47.32
-49.03
-47.77
-43.01
-34.91
-24.25
-12.28
-0.29
10.67
19.98
27.40
32.88
36.48
38.22
38.19
36.58
33.72
29.98
25.73
21.28
16.87
12.79
9.32
6.81
5.49
5.41
6.35
7.89
9.51
10.76
11.34
11.11
10.05
8.20
5.65
2.57
-0.79
-4.16
-7.32
-10.22
-13.06
-16.17
-19.95
-24.61
-30.04
-35.68
-40.63
-43.73
-43.95
-40.60
-33.61
-23.59
-11.62
0.98
13.04
23.72
32.56
39.40
44.19
46.91
47.56
46.22
43.17
38.84
33.86
28.84
24.27
20.48
17.58
15.52
14.19
13.53
13.48
13.98
14.92
16.07
17.06
17.51
17.05
15.52
12.95
9.61
5.86
2.08
-1.50
-4.81
-7.99
-11.30
-15.03
-19.42
-24.48
-29.88
-34.90
-38.52
-39.64
-37.43
-31.62
-22.64
-11.49
0.54
12.17
22.46
30.84
37.13
41.36
43.65
44.16
43.03
40.44
36.69
32.20
27.50
23.17
19.64
17.14
15.64
14.96
14.84
15.06
15.47
16.01
16.53
16.85
16.73
15.94
14.32
11.85
8.67
5.02
1.22
-2.46
-5.85
-8.91
-11.73
-14.45
-17.27
-20.36
-23.87
-27.87
-32.25
-36.58
-40.13
-41.88
-40.88
-36.55
-28.95
-18.86
-7.50
3.77
13.84
22.05
28.13
32.11
34.11
34.33
32.96
30.29
26.66
22.56
18.46
14.83
11.97
10.05
9.00
8.60
8.60
8.77
9.02
9.36
9.83
10.38
10.83
10.90
10.30
8.87
6.64
3.77
0.53
-2.86
-6.21
-9.40
-12.35
-15.00
-17.43
-19.82
-22.45
-25.56
-29.18
-33.00
-36.32
-38.22
-37.83
-34.60
-28.50
-20.04
-10.13
0.17
9.87
18.26
24.90
29.63
32.40
33.30
32.46
30.15
26.76
22.82
18.87
15.42
12.83
11.21
10.54
10.60
11.15
11.91
12.65
13.23
13.54
13.53
13.10
12.20
10.80
8.93
6.73
4.36
1.90
-0.64
-3.35
-6.33
-9.54
-12.78
-15.77
-18.23
-20.06
-21.36
-22.49
-23.91
-26.05
-29.13
-32.99
-37.03
-40.25
-41.58
-40.14
-35.61
-28.29
-19.02
-8.88
1.11
10.17
17.84
23.86
28.12
30.59
31.30
30.46
28.41
25.60
22.50
19.56
17.06
15.16
13.86
13.10
12.81
12.92
13.42
14.22
15.18
16.07
16.60
16.56
15.84
14.52
12.76
10.76
8.65
6.50
4.26
1.95
-0.39
-2.66
-4.76
-6.65
-8.41
-10.15
-11.99
-13.98
-16.04
-18.01
-19.78
-21.27
-22.55
-23.81
-25.27
-27.15
-29.60
-32.60
-35.92
-39.05
-41.29
-41.81
-39.98
-35.51
-28.58
-19.84
-10.21
-0.68
7.90
14.95
20.19
23.56
25.21
25.36
24.31
22.37
19.89
17.24
14.76
12.76
11.44
10.86
10.93
11.46
12.23
13.09
13.91
14.60
15.09
15.32
15.24
14.85
14.19
13.29
12.18
10.90
9.48
7.97
6.41
4.79
3.09
1.22
-0.82
-2.99
-5.16
-7.20
-8.99
-10.55
-11.94
-13.28
-14.64
-16.02
-17.35
-18.58
-19.66
-20.65
-21.71
-23.05
-24.88
-27.32
-30.29
-33.45
-36.22
-37.88
-37.70
-35.17
-30.18
-23.07
-14.62
-5.76
2.58
9.75
15.41
19.49
22.03
23.15
22.97
21.71
19.66
17.23
14.82
12.77
11.24
10.24
9.68
9.47
9.54
9.90
10.57
11.49
12.55
13.53
14.20
14.36
13.95
13.03
11.75
10.29
8.80
7.33
5.90
4.46
2.98
1.43
-0.21
-1.89
-3.55
-5.06
-6.39
-7.53
-8.62
-9.80
-11.17
-12.69
-14.15
-15.29
-15.92
-16.03
-15.81
-15.62
-15.90
-16.99
-19.10
-22.20
-25.92
-29.61
-32.41
-33.47
-32.17
-28.32
-22.27
-14.80
-6.86
0.64
6.99
11.86
15.19
17.12
17.89
17.76
16.95
15.61
13.88
11.86
9.72
7.70
6.10
5.29
5.56
7.00
9.42
12.36
15.22
17.46
18.76
19.07
18.57
17.49
15.98
14.07
11.75
9.05
6.17
3.36
0.89
-1.13
-2.81
-4.41
-6.24
-8.42
-10.94
-13.56
-16.01
-18.10
-19.80
-21.20
-22.46
-23.72
-25.05
-26.52
-28.18
-30.10
-32.31
-34.66
-36.80
-38.12
-38.01
-35.95
-31.80
-25.79
-18.49
-10.69
-3.11
3.64
9.21
13.48
16.45
18.24
18.93
18.62
17.42
15.51
13.15
10.68
8.42
6.59
5.31
4.56
4.29
4.41
4.87
5.63
6.66
7.84
8.99
9.90
10.34
10.16
9.32
7.91
6.17
4.36
2.65
1.07
-0.50
-2.25
-4.28
-6.59
-9.02
-11.39
-13.54
-15.39
-16.98
-18.42
-19.86
-21.53
-23.70
-26.57
-30.17
-34.23
-38.13
-41.00
-41.94
-40.29
-35.87
-29.02
-20.53
-11.38
-2.49
5.48
12.17
17.49
21.42
23.97
25.14
24.97
23.62
21.37
18.59
15.65
12.86
10.45
8.59
7.43
7.04
7.41
8.43
9.88
11.54
13.18
14.62
15.72
16.37
16.46
15.94
14.81
13.17
11.18
9.04
6.87
4.74
2.57
0.17
-2.62
-5.87
-9.45
-13.05
-16.31
-18.95
-20.91
-22.42
-23.90
-25.82
-28.50
-31.95
-35.79
-39.27
-41.45
-41.43
-38.57
-32.76
-24.37
-14.22
-3.30
7.42
17.14
25.32
31.64
35.94
38.28
38.85
37.97
36.01
33.39
30.37
27.19
23.99
20.92
18.15
15.82
14.08
13.00
12.60
12.88
13.75
15.02
16.38
17.44
17.80
17.25
15.85
13.90
11.82
9.91
8.25
6.62
4.71
2.22
-0.92
-4.52
-8.24
-11.71
-14.68
-17.11
-19.16
-21.12
-23.34
-26.10
-29.49
-33.39
-37.37
-40.73
-42.59
-42.11
-38.70
-32.21
-23.05
-12.13
-0.59
10.44
20.12
28.00
33.93
37.98
40.28
40.98
40.20
38.14
35.06
31.28
27.13
22.91
18.89
15.28
12.27
9.98
8.48
7.75
7.67
8.04
8.63
9.23
9.64
9.75
9.47
8.78
7.67
6.12
4.13
1.73
-1.06
-4.15
-7.42
-10.75
-14.06
-17.27
-20.41
-23.59
-26.95
-30.65
-34.70
-38.81
-42.34
-44.38
-43.98
-40.46
-33.75
-24.40
-13.46
-2.17
8.40
17.56
24.99
30.69
34.74
37.20
38.10
37.45
35.34
31.97
27.66
22.82
17.91
13.31
9.30
6.01
3.47
1.65
0.52
0.07
0.26
0.97
1.96
2.86
3.31
2.97
1.68
-0.53
-3.46
-6.80
-10.22
-13.46
-16.36
-18.91
-21.27
-23.70
-26.56
-30.14
-34.55
-39.50
-44.24
-47.63
-48.44
-45.71
-39.16
-29.29
-17.22
-4.40
7.85
18.60
27.34
33.93
38.42
40.94
41.69
40.89
38.82
35.75
31.95
27.67
23.10
18.51
14.16
10.34
7.31
5.20
4.03
3.69
4.00
4.70
5.54
6.23
6.55
6.26
5.22
3.41
0.93
-1.98
-5.04
-8.01
-10.80
-13.45
-16.15
-19.14
-22.61
-26.68
-31.37
-36.48
-41.52
-45.69
-47.96
-47.32
-43.13
-35.41
-24.87
-12.75
-0.41
10.99
20.73
28.51
34.29
38.13
40.10
40.32
38.93
36.17
32.37
27.89
23.12
18.45
14.18
10.60
7.87
6.11
5.32
5.40
6.15
7.27
8.44
9.34
9.79
9.70
9.09
7.98
6.38
4.28
1.70
-1.28
-4.52
-7.83
-11.06
-14.12
-17.04
-19.95
-23.05
-26.57
-30.65
-35.25
-39.92
-43.80
-45.75
-44.67
-39.86
-31.41
-20.16
-7.51
5.00
16.11
25.13
31.90
36.62
39.59
41.02
40.97
39.42
36.43
32.23
27.21
21.93
16.93
12.64
9.33
7.12
5.96
5.74
6.29
7.42
8.94
10.57
12.01
12.97
13.19
12.57
11.13
9.06
6.54
3.76
0.82
-2.27
-5.50
-8.81
-12.10
-15.24
-18.19
-21.03
-23.96
-27.24
-30.96
-34.92
-38.51
-40.78
-40.71
-37.53
-31.06
-21.75
-10.63
1.03
12.06
21.58
29.13
34.56
37.94
39.39
39.13
37.37
34.40
30.58
26.27
21.84
17.57
13.68
10.35
7.73
6.00
5.22
5.38
6.29
7.63
9.01
10.11
10.73
10.81
10.40
9.53
8.23
6.44
4.10
1.19
-2.21
-5.94
-9.76
-13.44
-16.80
-19.77
-22.44
-25.00
-27.75
-30.96
-34.71
-38.80
-42.54
-44.94
-44.90
-41.61
-34.94
-25.47
-14.38
-3.04
7.36
16.10
22.91
27.82
30.94
32.42
32.34
30.84
28.09
24.36
20.00
15.44
11.11
7.43
4.67
2.90
2.03
1.88
2.26
3.04
4.11
5.35
6.54
7.46
7.85
7.58
6.58
4.86
2.47
-0.48
-3.85
-7.42
-10.93
-14.18
-17.07
-19.68
-22.21
-24.99
-28.23
-31.98
-35.93
-39.40
-41.40
-40.92
-37.26
-30.34
-20.73
-9.60
1.70
11.98
20.45
26.84
31.19
33.70
34.54
33.86
31.79
28.54
24.45
19.97
15.55
11.62
8.44
6.18
4.84
4.38
4.63
5.41
6.49
7.64
8.67
9.43
9.79
9.65
8.95
7.62
5.63
3.03
-0.08
-3.55
-7.14
-10.64
-13.84
-16.66
-19.15
-21.52
-24.07
-27.10
-30.75
-34.86
-38.90
-42.01
-43.17
-41.54
-36.70
-28.83
-18.71
-7.46
3.75
13.94
22.47
29.00
33.44
35.82
36.31
35.15
32.69
29.32
25.41
21.32
17.40
13.98
11.34
9.68
9.04
9.30
10.24
11.56
12.98
14.22
15.06
15.30
14.84
13.71
12.05
10.07
7.95
5.71
3.27
0.44
-2.86
-6.56
-10.40
-14.07
-17.29
-19.97
-22.22
-24.34
-26.66
-29.48
-32.91
-36.83
-40.87
-44.34
-46.34
-45.94
-42.46
-35.71
-26.16
-14.86
-3.14
7.77
17.05
24.34
29.68
33.21
35.05
35.21
33.71
30.72
26.67
22.20
18.03
14.74
12.63
11.67
11.60
12.05
12.71
13.45
14.23
15.09
15.95
16.61
16.74
16.06
14.43
11.93
8.87
5.64
2.59
-0.10
-2.49
-4.80
-7.27
-10.03
-13.03
-16.07
-18.91
-21.36
-23.31
-24.78
-25.85
-26.72
-27.65
-28.97
-30.98
-33.74
-36.91
-39.69
-40.96
-39.63
-35.06
-27.32
-17.17
-5.84
5.39
15.50
23.89
30.32
34.76
37.21
37.73
36.43
33.57
29.61
25.09
20.61
16.65
13.56
11.52
10.58
10.64
11.47
12.74
14.10
15.30
16.17
16.68
16.87
16.71
16.16
15.14
13.61
11.66
9.47
7.22
5.02
2.86
0.66
-1.68
-4.21
-6.88
-9.57
-12.13
-14.44
-16.43
-18.08
-19.45
-20.63
-21.76
-23.02
-24.67
-26.95
-29.98
-33.58
-37.20
-39.91
-40.64
-38.54
-33.30
-25.31
-15.55
-5.22
4.55
13.03
19.83
24.90
28.24
29.93
30.03
28.66
26.09
22.73
19.01
15.39
12.22
9.71
8.00
7.16
7.17
7.96
9.34
11.01
12.63
13.89
14.59
14.68
14.21
13.29
12.01
10.40
8.50
6.37
4.07
1.66
-0.84
-3.47
-6.31
-9.39
-12.63
-15.82
-18.69
-20.99
-22.65
-23.81
-24.77
-25.95
-27.68
-30.16
-33.32
-36.75
-39.71
-41.25
-40.41
-36.61
-29.82
-20.67
-10.24
0.22
9.74
17.71
23.94
28.40
31.15
32.17
31.50
29.27
25.83
21.68
17.42
13.58
10.53
8.46
7.35
7.12
7.60
8.64
10.11
11.80
13.52
15.01
16.03
16.35
15.90
14.72
12.98
10.91
8.70
6.44
4.11
1.62
-1.12
-4.11
-7.27
-10.42
-13.41
-16.12
-18.50
-20.55
-22.28
-23.75
-25.07
-26.46
-28.20
-30.51
-33.44
-36.63
-39.29
-40.38
-38.87
-34.21
-26.49
-16.49
-5.44
5.43
15.16
23.24
29.47
33.87
36.43
37.18
36.21
33.72
30.11
25.89
21.58
17.68
14.53
12.37
11.25
11.09
11.70
12.86
14.39
16.12
17.88
19.45
20.59
21.03
20.63
19.34
17.28
14.65
11.71
8.67
5.72
2.97
0.44
-1.91
-4.20
-6.55
-9.01
-11.56
-14.08
-16.37
-18.25
-19.63
-20.55
-21.19
-21.85
-22.86
-24.53
-27.03
-30.26
-33.73
-36.62
-37.90
-36.60
-32.18
-24.71
-14.94
-4.04
6.70
16.21
23.85
29.38
32.86
34.50
34.57
33.34
31.12
28.18
24.77
21.11
17.40
13.84
10.67
8.11
6.36
5.54
5.67
6.66
8.29
10.23
12.05
13.32
13.67
12.93
11.18
8.72
5.93
3.16
0.58
-1.81
-4.22
-6.84
-9.82
-13.07
-16.37
-19.40
-21.89
-23.71
-24.97
-25.94
-26.98
-28.46
-30.61
-33.39
-36.38
-38.84
-39.83
-38.46
-34.28
-27.35
-18.38
-8.41
1.47
10.39
17.87
23.75
28.02
30.73
31.88
31.51
29.70
26.72
22.93
18.77
14.65
10.92
7.80
5.42
3.83
3.04
3.02
3.66
4.80
6.21
7.57
8.57
8.92
8.41
7.00
4.80
2.05
-0.97
-4.05
-7.09
-10.09
-13.11
-16.13
-19.09
-21.84
-24.30
-26.52
-28.73
-31.29
-34.44
-38.08
-41.65
-44.16
-44.51
-41.81
-35.79
-26.91
-16.23
-5.07
5.41
14.43
21.69
27.19
31.03
33.30
34.02
33.27
31.21
28.14
24.43
20.46
16.58
13.10
10.28
8.35
7.45
7.55
8.41
9.67
10.91
11.84
12.31
12.33
11.99
11.33
10.29
8.76
6.65
3.91
0.59
-3.14
-7.07
-10.98
-14.65
-17.96
-20.87
-23.51
-26.15
-29.11
-32.65
-36.79
-41.09
-44.72
-46.59
-45.69
-41.48
-34.07
-24.24
-13.14
-2.01
8.19
16.86
23.75
28.78
31.96
33.32
32.96
31.10
28.08
24.33
20.29
16.38
12.90
10.09
8.12
7.04
6.80
7.28
8.28
9.56
10.92
12.14
13.05
13.50
13.35
12.51
10.97
8.77
6.00
2.83
-0.56
-3.94
-7.13
-10.01
-12.62
-15.09
-17.67
-20.62
-24.09
-28.02
-32.04
-35.51
-37.53
-37.23
-34.04
-27.83
-19.10
-8.76
2.05
12.27
21.12
28.14
33.15
36.15
37.22
36.53
34.31
30.90
26.70
22.14
17.67
13.66
10.43
8.17
6.92
6.63
7.13
8.23
9.67
11.21
12.54
13.43
13.69
13.28
12.32
11.03
9.62
8.24
6.87
5.36
3.47
1.04
-1.97
-5.41
-9.00
-12.35
-15.14
-17.20
-18.61
-19.65
-20.81
-22.55
-25.18
-28.61
-32.28
-35.26
-36.45
-34.94
-30.27
-22.65
-12.83
-1.90
8.95
18.73
26.76
32.70
36.47
38.23
38.22
36.75
34.17
30.82
27.04
23.18
19.61
16.68
14.69
13.81
14.04
15.19
16.94
18.92
20.78
22.25
23.15
23.41
23.03
22.11
20.78
19.20
17.44
15.52
13.34
10.79
7.83
4.54
1.16
-2.00
-4.74
-7.01
-8.97
-10.83
-12.80
-14.96
-17.24
-19.46
-21.50
-23.27
-24.84
-26.36
-28.07
-30.21
-33.01
-36.55
-40.62
-44.69
-47.84
-49.00
-47.27
-42.25
-34.20
-23.99
-12.82
-1.88
7.93
16.08
22.37
26.74
29.24
29.97
29.11
26.97
23.93
20.41
16.75
13.26
10.13
7.57
5.76
4.88
5.01
6.12
8.01
10.36
12.79
14.91
16.38
16.99
16.63
15.35
13.35
10.93
8.43
6.05
3.87
1.80
-0.38
-2.83
-5.65
-8.78
-12.04
-15.17
-17.89
-20.00
-21.43
-22.30
-22.95
-23.78
-25.21
-27.47
-30.50
-33.94
-37.13
-39.20
-39.32
-36.87
-31.63
-23.90
-14.44
-4.27
5.55
14.17
21.09
26.13
29.34
30.87
30.90
29.57
27.05
23.59
19.54
15.34
11.46
8.26
5.95
4.56
4.01
4.18
4.96
6.26
7.90
9.62
11.06
11.91
11.94
11.17
9.76
7.98
6.03
4.06
2.09
0.09
-1.99
-4.19
-6.52
-8.99
-11.59
-14.29
-16.99
-19.54
-21.75
-23.47
-24.67
-25.51
-26.31
-27.51
-29.48
-32.32
-35.67
-38.77
-40.58
-40.10
-36.72
-30.41
-21.75
-11.70
-1.31
8.54
17.22
24.38
29.80
33.39
35.12
35.12
33.66
31.12
27.90
24.39
20.91
17.72
15.00
12.94
11.64
11.16
11.48
12.46
13.88
15.46
16.87
17.84
18.22
17.98
17.19
15.94
14.32
12.36
10.11
7.62
5.01
2.41
-0.12
-2.57
-5.04
-7.61
-10.32
-13.12
-15.89
-18.47
-20.71
-22.55
-23.95
-25.00
-25.88
-26.85
-28.22
-30.30
-33.21
-36.77
-40.41
-43.19
-44.07
-42.21
-37.24
-29.43
-19.58
-8.81
1.80
11.38
19.38
25.54
29.80
32.16
32.76
31.80
29.63
26.63
23.20
19.69
16.41
13.60
11.49
10.25
9.95
10.51
11.71
13.27
14.87
16.33
17.52
18.40
18.94
19.04
18.60
17.53
15.83
13.58
10.93
8.04
5.06
2.10
-0.76
-3.44
-5.91
-8.23
-10.48
-12.80
-15.22
-17.71
-20.11
-22.25
-24.03
-25.51
-26.93
-28.59
-30.80
-33.70
-37.17
-40.83
-43.94
-45.64
-45.07
-41.67
-35.35
-26.56
-16.22
-5.41
4.85
13.81
21.09
26.58
30.30
32.33
32.71
31.52
28.96
25.43
21.45
17.59
14.34
11.91
10.33
9.42
9.04
9.09
9.51
10.29
11.32
12.41
13.27
13.66
13.39
12.44
10.87
8.86
6.64
4.44
2.38
0.48
-1.37
-3.36
-5.69
-8.40
-11.42
-14.55
-17.53
-20.15
-22.33
-24.05
-25.45
-26.74
-28.24
-30.29
-33.14
-36.77
-40.77
-44.31
-46.33
-45.84
-42.29
-35.75
-26.89
-16.79
-6.57
2.87
10.93
17.36
22.13
25.27
26.89
27.10
26.09
24.08
21.31
18.09
14.70
11.41
8.45
6.00
4.22
3.29
3.33
4.41
6.38
8.90
11.37
13.15
13.74
12.93
10.94
8.25
5.39
2.73
0.36
-1.89
-4.22
-6.77
-9.52
-12.30
-14.95
-17.37
-19.61
-21.78
-24.06
-26.61
-29.54
-32.85
-36.35
-39.52
-41.56
-41.59
-38.88
-33.18
-24.82
-14.64
-3.69
6.99
16.63
24.73
31.02
35.37
37.78
38.33
37.28
34.93
31.69
27.94
24.02
20.29
17.08
14.65
13.22
12.81
13.33
14.54
16.12
17.76
19.17
20.12
20.44
20.03
18.91
17.19
15.04
12.66
10.18
7.58
4.78
1.66
-1.81
-5.54
-9.26
-12.68
-15.55
-17.83
-19.62
-21.20
-22.91
-25.03
-27.79
-31.19
-34.91
-38.28
-40.33
-40.06
-36.74
-30.21
-21.02
-10.22
0.99
11.54
20.74
28.26
34.00
37.88
39.83
39.86
38.12
34.99
31.02
26.80
22.83
19.41
16.66
14.63
13.32
12.78
13.00
13.90
15.31
16.99
18.68
20.21
21.43
22.19
22.31
21.58
19.88
17.23
13.87
10.20
6.57
3.22
0.13
-2.83
-5.82
-8.87
-11.83
-14.46
-16.59
-18.24
-19.64
-21.12
-22.99
-25.48
-28.62
-32.29
-36.10
-39.47
-41.56
-41.51
-38.66
-32.78
-24.26
-14.01
-3.19
7.10
16.11
23.44
29.00
32.81
34.91
35.30
34.05
31.34
27.54
23.13
18.67
14.66
11.48
9.30
8.10
7.75
8.04
8.77
9.80
11.00
12.26
13.37
14.07
14.10
13.26
11.56
9.22
6.60
4.04
1.75
-0.34
-2.44
-4.85
-7.69
-10.92
-14.27
-17.38
-19.95
-21.84
-23.13
-24.11
-25.17
-26.72
-28.98
-31.87
-34.94
-37.40
-38.29
-36.81
-32.53
-25.56
-16.57
-6.51
3.55
12.73
20.46
26.44
30.58
32.94
33.59
32.65
30.33
26.92
22.82
18.47
14.32
10.71
7.91
6.07
5.26
5.47
6.55
8.26
10.20
11.96
13.13
13.49
12.96
11.66
9.76
7.45
4.90
2.20
-0.57
-3.39
-6.23
-9.07
-11.88
-14.57
-17.07
-19.34
-21.38
-23.32
-25.35
-27.69
-30.50
-33.75
-37.13
-40.02
-41.50
-40.66
-36.84
-29.97
-20.64
-9.95
0.81
10.56
18.67
24.96
29.56
32.64
34.28
34.48
33.23
30.67
27.11
23.04
18.97
15.36
12.51
10.56
9.55
9.42
10.11
11.49
13.37
15.46
17.38
18.73
19.15
18.48
16.76
14.28
11.39
8.50
5.85
3.51
1.38
-0.77
-3.18
-5.98
-9.14
-12.44
-15.53
-18.09
-19.93
-21.11
-21.93
-22.83
-24.26
-26.49
-29.47
-32.82
-35.82
-37.60
-37.28
-34.27
-28.41
-20.07
-10.07
0.45
10.38
18.85
25.35
29.79
32.33
33.27
32.89
31.42
29.02
25.87
22.23
18.44
14.94
12.13
10.29
9.52
9.74
10.72
12.18
13.82
15.41
16.73
17.62
17.94
17.60
16.58
14.95
12.86
10.48
8.02
5.58
3.19
0.76
-1.83
-4.65
-7.71
-10.86
-13.87
-16.49
-18.56
-20.05
-21.13
-22.12
-23.42
-25.36
-28.05
-31.32
-34.68
-37.39
-38.61
-37.62
-34.01
-27.83
-19.61
-10.22
-0.72
7.93
15.08
20.44
24.04
26.08
26.79
26.32
24.75
22.22
18.94
15.20
11.38
7.81
4.80
2.55
1.23
0.90
1.50
2.81
4.54
6.29
7.74
8.69
9.07
8.89
8.22
7.12
5.60
3.65
1.28
-1.48
-4.51
-7.65
-10.71
-13.53
-16.00
-18.05
-19.70
-21.04
-22.26
-23.60
-25.31
-27.51
-30.04
-32.39
-33.78
-33.36
-30.50
-25.06
-17.43
-8.47
0.82
9.53
17.01
22.89
27.05
29.49
30.31
29.65
27.74
24.86
21.37
17.67
14.13
11.02
8.51
6.65
5.44
4.86
4.91
5.59
6.80
8.29
9.70
10.65
10.84
10.18
8.81
6.99
4.97
2.90
0.78
-1.48
-3.97
-6.71
-9.65
-12.64
-15.52
-18.13
-20.36
-22.20
-23.76
-25.24
-26.89
-28.96
-31.53
-34.43
-37.15
-38.85
-38.62
-35.74
-30.01
-21.83
-12.14
-2.09
7.28
15.31
21.76
26.67
30.12
32.12
32.56
31.40
28.77
25.05
20.79
16.60
12.98
10.20
8.32
7.28
6.97
7.30
8.21
9.60
11.26
12.91
14.16
14.71
14.37
13.18
11.35
9.14
6.84
4.60
2.47
0.39
-1.73
-4.00
-6.48
-9.15
-11.94
-14.66
-17.10
-19.11
-20.61
-21.71
-22.60
-23.57
-24.95
-26.94
-29.59
-32.65
-35.54
-37.45
-37.48
-34.96
-29.62
-21.74
-12.10
-1.75
8.20
16.89
23.79
28.72
31.77
33.15
33.10
31.87
29.67
26.72
23.26
19.62
16.18
13.32
11.32
10.28
10.11
10.57
11.38
12.34
13.40
14.57
15.81
16.95
17.68
17.65
16.69
14.82
12.32
9.52
6.72
4.07
1.58
-0.81
-3.19
-5.57
-7.97
-10.39
-12.76
-15.04
-17.12
-18.93
-20.47
-21.83
-23.18
-24.76
-26.79
-29.38
-32.44
-35.54
-37.94
-38.73
-37.11
-32.65
-25.55
-16.57
-6.81
2.63
10.91
17.62
22.62
25.97
27.73
27.97
26.82
24.49
21.34
17.78
14.17
10.79
7.78
5.23
3.22
1.85
1.24
1.49
2.59
4.42
6.70
9.04
11.02
12.30
12.67
12.09
10.69
8.71
6.43
4.06
1.71
-0.63
-3.08
-5.73
-8.62
-11.60
-14.45
-16.95
-18.98
-20.63
-22.08
-23.60
-25.37
-27.48
-29.93
-32.49
-34.79
-36.17
-35.87
-33.21
-27.88
-20.10
-10.69
-0.77
8.58
16.61
23.01
27.77
31.01
32.79
33.09
31.89
29.33
25.73
21.59
17.47
13.81
10.91
8.87
7.64
7.11
7.19
7.82
8.96
10.52
12.33
14.08
15.37
15.87
15.38
13.90
11.65
8.94
6.12
3.40
0.86
-1.57
-4.03
-6.66
-9.50
-12.48
-15.42
-18.10
-20.34
-22.10
-23.47
-24.66
-25.98
-27.75
-30.13
-33.07
-36.14
-38.55
-39.32
-37.58
-32.83
-25.23
-15.51
-4.81
5.65
14.89
22.34
27.76
31.26
33.04
33.38
32.51
30.68
28.06
24.87
21.36
17.84
14.62
11.99
10.15
9.13
8.91
9.43
10.61
12.34
14.42
16.52
18.22
19.13
18.96
17.70
15.55
12.88
10.07
7.42
5.06
2.91
0.79
-1.56
-4.30
-7.42
-10.71
-13.84
-16.46
-18.44
-19.86
-21.00
-22.22
-23.84
-26.05
-28.88
-32.12
-35.35
-37.90
-38.97
-37.75
-33.78
-27.10
-18.33
-8.45
1.41
10.35
17.76
23.45
27.45
29.92
31.04
30.94
29.69
27.42
24.30
20.65
16.86
13.34
10.44
8.38
7.21
6.87
7.29
8.37
10.00
12.00
14.06
15.76
16.69
16.58
15.39
13.35
10.83
8.25
5.86
3.69
1.56
-0.79
-3.54
-6.69
-10.09
-13.45
-16.55
-19.26
-21.55
-23.53
-25.30
-27.03
-28.90
-31.11
-33.77
-36.73
-39.46
-41.13
-40.84
-37.93
-32.29
-24.40
-15.14
-5.54
3.60
11.72
18.54
23.88
27.59
29.54
29.74
28.37
25.84
22.60
19.07
15.50
12.02
8.72
5.79
3.54
2.30
2.29
3.43
5.33
7.41
9.15
10.20
10.51
10.23
9.57
8.66
7.48
5.92
3.83
1.14
-2.11
-5.74
-9.51
-13.13
-16.40
-19.20
-21.56
-23.62
-25.59
-27.75
-30.32
-33.38
-36.77
-39.91
-41.96
-41.95
-39.17
-33.39
-25.06
-15.06
-4.50
5.65
14.72
22.33
28.27
32.46
34.88
35.58
34.71
32.55
29.40
25.60
21.52
17.51
13.91
11.01
8.99
7.95
7.83
8.52
9.84
11.51
13.23
14.64
15.46
15.54
14.85
13.52
11.70
9.53
7.12
4.50
1.67
-1.42
-4.79
-8.41
-12.14
-15.76
-19.04
-21.85
-24.17
-26.19
-28.18
-30.50
-33.31
-36.54
-39.71
-42.04
-42.56
-40.46
-35.36
-27.46
-17.55
-6.69
4.04
13.80
22.11
28.71
33.51
36.42
37.44
36.63
34.22
30.58
26.23
21.68
17.40
13.76
10.97
9.14
8.23
8.16
8.83
10.11
11.84
13.83
15.78
17.36
18.23
18.16
17.10
15.21
12.77
10.13
7.52
5.02
2.53
-0.10
-2.98
-6.14
-9.46
-12.78
-15.84
-18.49
-20.63
-22.30
-23.72
-25.24
-27.24
-29.95
-33.23
-36.51
-38.82
-39.12
-36.61
-31.04
-22.80
-12.74
-1.97
8.51
17.95
25.86
31.98
36.15
38.29
38.43
36.78
33.72
29.73
25.29
20.81
16.56
12.75
9.56
7.20
5.85
5.63
6.47
8.15
10.28
12.43
14.20
15.27
15.46
14.70
13.10
10.94
8.53
6.17
3.97
1.82
-0.51
-3.27
-6.59
-10.34
-14.21
-17.82
-20.91
-23.38
-25.38
-27.21
-29.28
-31.89
-35.14
-38.79
-42.24
-44.57
-44.80
-42.18
-36.44
-27.93
-17.55
-6.47
4.13
13.36
20.72
26.09
29.56
31.36
31.71
30.77
28.65
25.47
21.41
16.77
11.96
7.46
3.73
1.14
-0.16
-0.17
0.91
2.75
4.97
7.16
8.96
10.13
10.59
10.37
9.57
8.26
6.43
4.02
1.03
-2.48
-6.31
-10.19
-13.88
-17.22
-20.20
-22.95
-25.69
-28.67
-32.04
-35.77
-39.50
-42.55
-44.03
-43.06
-39.09
-32.11
-22.65
-11.68
-0.29
10.50
19.97
27.68
33.44
37.24
39.14
39.28
37.82
34.98
31.03
26.34
21.34
16.54
12.44
9.44
7.76
7.39
8.18
9.82
11.94
14.12
15.92
16.99
17.13
16.37
14.89
12.96
10.78
8.37
5.66
2.52
-1.07
-4.99
-9.01
-12.89
-16.44
-19.54
-22.21
-24.56
-26.82
-29.30
-32.33
-36.00
-40.03
-43.70
-45.99
-45.87
-42.71
-36.50
-27.82
-17.67
-7.11
2.99
12.04
19.68
25.77
30.24
33.08
34.38
34.30
33.01
30.76
27.80
24.43
21.02
18.01
15.78
14.65
14.72
15.91
17.90
20.29
22.57
24.28
25.05
24.68
23.20
20.85
17.96
14.89
11.83
8.77
5.55
1.99
-1.95
-6.14
-10.30
-14.13
-17.41
-20.09
-22.31
-24.34
-26.54
-29.20
-32.43
-36.01
-39.27
-41.24
-40.86
-37.36
-30.58
-21.07
-9.94
1.46
11.98
20.83
27.70
32.58
35.60
36.90
36.57
34.77
31.75
27.88
23.63
19.45
15.70
12.57
10.12
8.37
7.33
7.10
7.73
9.21
11.31
13.55
15.34
16.17
15.74
14.15
11.79
9.16
6.64
4.32
2.03
-0.53
-3.55
-7.03
-10.72
-14.29
-17.48
-20.20
-22.53
-24.66
-26.81
-29.17
-31.92
-35.08
-38.53
-41.80
-44.10
-44.49
-42.19
-36.90
-28.95
-19.20
-8.77
1.32
10.36
18.00
24.09
28.55
31.33
32.32
31.53
29.09
25.31
20.62
15.57
10.73
6.64
3.69
2.08
1.77
2.56
4.11
6.04
8.00
9.71
10.99
11.72
11.88
11.48
10.49
8.91
6.70
3.89
0.61
-2.93
-6.50
-9.91
-13.03
-15.88
-18.54
-21.14
-23.84
-26.83
-30.22
-33.97
-37.76
-40.87
-42.36
-41.27
-37.01
-29.60
-19.75
-8.60
2.57
12.70
21.15
27.69
32.31
35.08
36.02
35.16
32.56
28.50
23.42
17.90
12.58
7.98
4.44
2.07
0.86
0.67
1.33
2.70
4.57
6.68
8.63
10.03
10.55
10.10
8.80
7.01
5.06
3.14
1.20
-1.00
-3.73
-7.10
-10.93
-14.85
-18.42
-21.32
-23.51
-25.22
-26.84
-28.78
-31.34
-34.51
-37.92
-40.82
-42.24
-41.25
-37.28
-30.32
-20.94
-10.11
1.10
11.77
21.23
29.03
34.93
38.83
40.75
40.84
39.38
36.71
33.11
28.88
24.29
19.72
15.59
12.33
10.25
9.46
9.83
11.09
12.89
14.86
16.63
17.90
18.41
18.03
16.76
14.77
12.35
9.79
7.28
4.84
2.33
-0.44
-3.59
-7.09
-10.72
-14.18
-17.24
-19.77
-21.84
-23.64
-25.47
-27.61
-30.23
-33.33
-36.55
-39.13
-40.08
-38.38
-33.42
-25.28
-14.79
-3.24
7.97
17.75
25.52
31.16
34.83
36.77
37.14
36.08
33.74
30.38
26.34
22.04
17.88
14.16
11.08
8.77
7.28
6.66
6.87
7.83
9.33
11.06
12.64
13.73
14.10
13.69
12.57
10.92
8.92
6.73
4.41
1.93
-0.78
-3.79
-7.13
-10.67
-14.19
-17.38
-20.00
-21.95
-23.36
-24.56
-25.96
-27.98
-30.77
-34.15
-37.51
-39.90
-40.32
-37.99
-32.69
-24.83
-15.35
-5.41
3.96
12.10
18.75
23.90
27.63
29.93
30.69
29.85
27.42
23.66
19.05
14.18
9.61
5.83
3.08
1.42
0.78
0.98
1.81
3.05
4.50
5.91
7.08
7.79
7.90
7.30
6.02
4.13
1.76
-0.98
-3.96
-7.10
-10.33
-13.56
-16.70
-19.69
-22.49
-25.18
-27.91
-30.90
-34.34
-38.23
-42.25
-45.73
-47.71
-47.21
-43.57
-36.65
-26.97
-15.56
-3.68
7.51
17.15
24.75
30.21
33.63
35.26
35.36
34.15
31.85
28.66
24.80
20.59
16.37
12.54
9.44
7.34
6.35
6.45
7.48
9.17
11.16
13.04
14.42
15.01
14.68
13.47
11.63
9.44
7.12
4.73
2.09
-1.00
-4.71
-8.91
-13.25
-17.20
-20.30
-22.40
-23.65
-24.54
-25.62
-27.37
-30.05
-33.52
-37.26
-40.39
-41.81
-40.50
-35.87
-27.99
-17.64
-6.08
5.29
15.37
23.52
29.58
33.66
35.97
36.65
35.79
33.53
30.09
25.91
21.46
17.22
13.55
10.59
8.39
6.93
6.23
6.35
7.36
9.16
11.45
13.75
15.54
16.40
16.19
15.05
13.28
11.23
9.15
7.15
5.16
3.04
0.63
-2.17
-5.40
-8.96
-12.64
-16.17
-19.31
-21.95
-24.19
-26.33
-28.80
-31.92
-35.72
-39.74
-43.11
-44.68
-43.42
-38.82
-31.02
-20.79
-9.33
2.17
12.71
21.67
28.74
33.85
36.99
38.25
37.72
35.63
32.31
28.20
23.80
19.55
15.81
12.73
10.36
8.70
7.78
7.69
8.48
10.10
12.24
14.41
16.02
16.61
16.02
14.39
12.09
9.55
7.09
4.80
2.57
0.19
-2.54
-5.67
-9.09
-12.58
-15.86
-18.72
-21.08
-23.02
-24.77
-26.62
-28.91
-31.83
-35.35
-39.02
-42.03
-43.33
-41.92
-37.20
-29.29
-18.99
-7.58
3.66
13.70
22.02
28.50
33.19
36.16
37.42
36.97
34.92
31.56
27.29
22.57
17.75
13.16
9.07
5.75
3.45
2.33
2.40
3.46
5.16
7.08
8.79
9.98
10.47
10.25
9.37
7.93
6.06
3.81
1.20
-1.76
-5.03
-8.46
-11.87
-15.05
-17.85
-20.24
-22.30
-24.18
-26.12
-28.37
-31.13
-34.41
-37.89
-40.89
-42.41
-41.49
-37.47
-30.35
-20.83
-10.06
0.72
10.51
18.72
25.19
29.95
33.10
34.70
34.75
33.29
30.41
26.34
21.45
16.24
11.25
7.00
3.86
1.99
1.33
1.68
2.78
4.33
6.00
7.48
8.48
8.78
8.34
7.26
5.74
3.99
2.08
-0.05
-2.59
-5.68
-9.31
-13.26
-17.16
-20.68
-23.60
-25.99
-28.19
-30.65
-33.78
-37.72
-42.12
-46.19
-48.75
-48.65
-45.07
-37.92
-27.83
-16.05
-3.95
7.30
17.06
25.07
31.34
35.91
38.72
39.71
38.89
36.51
32.95
28.71
24.19
19.74
15.62
12.05
9.30
7.58
7.02
7.59
9.05
11.05
13.13
14.88
15.96
16.19
15.53
14.10
12.10
9.72
7.10
4.25
1.08
-2.47
-6.39
-10.53
-14.61
-18.33
-21.47
-24.01
-26.06
-27.90
-29.88
-32.35
-35.51
-39.29
-43.23
-46.44
-47.83
-46.37
-41.45
-33.14
-22.20
-9.86
2.53
13.82
23.31
30.74
36.14
39.65
41.36
41.31
39.58
36.34
31.97
27.02
22.15
17.88
14.58
12.33
11.07
10.65
10.95
11.89
13.36
15.17
17.04
18.63
19.61
19.74
18.90
17.12
14.57
11.56
8.45
5.53
2.98
0.69
-1.65
-4.40
-7.76
-11.65
-15.70
-19.42
-22.42
-24.61
-26.18
-27.50
-28.93
-30.79
-33.28
-36.44
-40.08
-43.62
-46.11
-46.35
-43.32
-36.57
-26.48
-14.20
-1.26
10.90
21.34
29.69
35.94
40.24
42.66
43.16
41.75
38.62
34.21
29.14
24.10
19.62
16.05
13.51
11.97
11.33
11.50
12.39
13.87
15.77
17.82
19.67
21.01
21.58
21.27
20.14
18.36
16.12
13.58
10.83
7.91
4.86
1.72
-1.44
-4.61
-7.81
-11.07
-14.38
-17.64
-20.67
-23.29
-25.39
-27.00
-28.27
-29.45
-30.82
-32.71
-35.35
-38.80
-42.70
-46.26
-48.31
-47.64
-43.49
-35.79
-25.23
-13.08
-0.71
10.72
20.45
28.18
33.84
37.50
39.28
39.28
37.65
34.60
30.47
25.67
20.73
16.16
12.38
9.64
8.03
7.46
7.79
8.86
10.49
12.46
14.51
16.30
17.47
17.76
17.00
15.24
12.67
9.62
6.39
3.18
0.03
-3.15
-6.49
-10.11
-13.96
-17.89
-21.62
-24.91
-27.56
-29.59
-31.14
-32.54
-34.15
-36.30
-39.14
-42.46
-45.66
-47.85
-47.98
-45.21
-39.18
-30.16
-18.97
-6.79
5.18
15.97
24.99
32.02
37.03
40.12
41.35
40.81
38.64
35.12
30.71
25.93
21.34
17.34
14.14
11.77
10.18
9.36
9.37
10.25
11.95
14.24
16.66
18.67
19.78
19.72
18.47
16.24
13.34
10.15
6.92
3.79
0.74
-2.36
-5.63
-9.13
-12.83
-16.58
-20.19
-23.49
-26.38
-28.82
-30.92
-32.87
-34.98
-37.55
-40.77
-44.51
-48.19
-50.83
-51.23
-48.41
-41.97
-32.28
-20.36
-7.59
4.78
15.85
25.17
32.60
38.10
41.63
43.12
42.60
40.28
36.53
31.91
26.95
22.14
17.87
14.40
11.90
10.45
10.01
10.47
11.66
13.32
15.17
16.91
18.27
19.01
18.98
18.14
16.58
14.43
11.92
9.22
6.46
3.69
0.84
-2.18
-5.48
-9.08
-12.88
-16.67
-20.16
-23.11
-25.44
-27.23
-28.76
-30.40
-32.47
-35.17
-38.49
-42.09
-45.30
-47.20
-46.77
-43.22
-36.31
-26.47
-14.75
-2.47
9.16
19.31
27.62
34.07
38.70
41.55
42.58
41.84
39.53
36.03
31.80
27.29
22.89
18.91
15.61
13.20
11.83
11.56
12.26
13.70
15.55
17.45
19.04
20.04
20.23
19.53
17.97
15.74
13.09
10.28
7.53
4.92
2.38
-0.23
-3.11
-6.41
-10.13
-14.11
-18.07
-21.65
-24.60
-26.82
-28.45
-29.82
-31.38
-33.54
-36.48
-40.03
-43.60
-46.22
-46.82
-44.50
-38.88
-30.24
-19.47
-7.76
3.70
13.99
22.56
29.16
33.75
36.39
37.19
36.33
34.12
30.85
26.86
22.43
17.86
13.44
9.50
6.35
4.24
3.25
3.35
4.37
6.03
8.03
10.00
11.58
12.44
12.41
11.50
9.90
7.88
5.68
3.35
0.78
-2.19
-5.63
-9.38
-13.18
-16.70
-19.75
-22.32
-24.59
-26.81
-29.28
-32.21
-35.64
-39.34
-42.72
-44.88
-44.80
-41.67
-35.25
-26.00
-15.00
-3.62
6.86
15.55
22.12
26.63
29.37
30.59
30.41
28.84
25.94
21.88
17.03
11.84
6.79
2.23
-1.55
-4.34
-5.95
-6.30
-5.40
-3.52
-1.09
1.37
3.41
4.80
5.49
5.56
5.11
4.21
2.86
1.03
-1.29
-4.02
-7.05
-10.21
-13.35
-16.36
-19.17
-21.82
-24.39
-27.02
-29.89
-33.14
-36.72
-40.30
-43.12
-44.21
-42.58
-37.59
-29.24
-18.22
-5.73
6.83
18.23
27.62
34.62
39.24
41.75
42.50
41.78
39.80
36.70
32.64
27.94
23.03
18.41
14.49
11.48
9.44
8.31
8.05
8.64
10.07
12.14
14.44
16.42
17.56
17.55
16.42
14.47
12.10
9.58
7.02
4.33
1.37
-1.91
-5.43
-8.96
-12.31
-15.32
-17.97
-20.35
-22.61
-24.94
-27.56
-30.62
-34.09
-37.63
-40.50
-41.69
-40.22
-35.49
-27.57
-17.20
-5.60
5.92
16.32
24.99
31.74
36.64
39.75
41.11
40.69
38.54
34.91
30.26
25.20
20.37
16.25
13.09
10.96
9.79
9.50
10.00
11.23
13.02
15.11
17.10
18.55
19.11
18.61
17.14
14.98
12.47
9.89
7.35
4.81
2.08
-0.97
-4.39
-8.05
-11.73
-15.12
-18.00
-20.28
-22.02
-23.47
-24.99
-26.94
-29.56
-32.84
-36.39
-39.43
-40.96
-40.01
-35.98
-28.85
-19.26
-8.31
2.74
12.84
21.33
27.97
32.79
35.88
37.35
37.24
35.66
32.79
28.92
24.43
19.75
15.28
11.41
8.42
6.48
5.66
5.85
6.84
8.34
10.01
11.48
12.42
12.61
11.95
10.54
8.58
6.27
3.78
1.15
-1.64
-4.63
-7.79
-11.03
-14.19
-17.16
-19.85
-22.24
-24.44
-26.63
-29.06
-31.92
-35.18
-38.42
-40.83
-41.40
-39.22
-33.93
-25.85
-15.92
-5.40
4.55
13.14
20.01
25.15
28.63
30.54
30.91
29.83
27.46
24.12
20.17
15.99
11.97
8.41
5.55
3.59
2.63
2.63
3.43
4.73
6.22
7.59
8.61
9.17
9.26
8.88
8.02
6.64
4.66
2.05
-1.14
-4.74
-8.53
-12.24
-15.71
-18.85
-21.71
-24.42
-27.17
-30.14
-33.45
-36.97
-40.30
-42.70
-43.25
-41.11
-35.86
-27.73
-17.52
-6.39
4.48
14.20
22.24
28.41
32.64
34.97
35.47
34.29
31.73
28.17
24.04
19.76
15.68
12.12
9.30
7.41
6.55
6.72
7.77
9.46
11.37
13.10
14.21
14.45
13.78
12.35
10.46
8.39
6.29
4.14
1.77
-1.01
-4.26
-7.88
-11.57
-14.99
-17.90
-20.23
-22.11
-23.81
-25.66
-27.95
-30.75
-33.90
-36.92
-39.05
-39.43
-37.28
-32.22
-24.45
-14.70
-4.05
6.34
15.61
23.24
29.08
33.21
35.72
36.70
36.17
34.19
30.96
26.83
22.31
17.94
14.20
11.42
9.72
9.02
9.16
9.92
11.08
12.42
13.73
14.74
15.19
14.88
13.73
11.89
9.64
7.34
5.22
3.29
1.33
-1.01
-3.96
-7.56
-11.51
-15.37
-18.69
-21.22
-22.97
-24.22
-25.35
-26.76
-28.74
-31.36
-34.42
-37.41
-39.51
-39.78
-37.46
-32.18
-24.23
-14.46
-4.05
5.84
14.38
21.15
26.12
29.42
31.20
31.52
30.41
28.00
24.55
20.48
16.27
12.36
9.05
6.53
4.85
4.01
3.94
4.51
5.53
6.75
7.89
8.71
9.05
8.80
7.91
6.38
4.28
1.74
-1.09
-4.05
-7.07
-10.10
-13.13
-16.12
-19.03
-21.86
-24.68
-27.65
-30.88
-34.32
-37.58
-40.04
-40.91
-39.51
-35.50
-29.01
-20.61
-11.18
-1.65
7.15
14.66
20.59
24.83
27.43
28.45
27.98
26.16
23.17
19.30
14.93
10.51
6.47
3.13
0.67
-0.89
-1.63
-1.66
-1.07
0.04
1.51
3.04
4.25
4.73
4.22
2.68
0.26
-2.73
-5.92
-9.04
-11.90
-14.45
-16.76
-19.03
-21.54
-24.58
-28.31
-32.63
-37.10
-40.95
-43.23
-43.06
-39.85
-33.52
-24.50
-13.67
-2.15
8.99
18.84
26.84
32.74
36.54
38.40
38.53
37.15
34.48
30.75
26.29
21.55
17.04
13.25
10.52
8.96
8.41
8.60
9.20
9.95
10.72
11.42
11.96
12.24
12.12
11.46
10.17
8.22
5.64
2.51
-1.00
-4.66
-8.24
-11.58
-14.62
-17.49
-20.43
-23.72
-27.55
-31.92
-36.48
-40.52
-43.10
-43.22
-40.15
-33.72
-24.39
-13.13
-1.13
10.45
20.76
29.29
35.80
40.21
42.52
42.79
41.18
37.97
33.59
28.59
23.56
19.02
15.38
12.87
11.56
11.37
12.16
13.72
15.79
18.06
20.16
21.78
22.68
22.79
22.11
20.71
18.63
15.94
12.71
9.06
5.18
1.25
-2.60
-6.33
-9.97
-13.60
-17.27
-21.06
-25.03
-29.20
-33.48
-37.50
-40.58
-41.81
-40.28
-35.47
-27.42
-16.84
-4.91
7.05
17.90
26.82
33.42
37.65
39.67
39.75
38.22
35.38
31.54
27.02
22.13
17.21
12.58
8.52
5.24
2.84
1.36
0.79
1.03
1.89
3.04
4.10
4.72
4.77
4.28
3.42
2.30
0.90
-0.95
-3.38
-6.40
-9.79
-13.18
-16.26
-18.89
-21.15
-23.29
-25.58
-28.23
-31.34
-34.85
-38.47
-41.61
-43.42
-43.01
-39.68
-33.28
-24.28
-13.67
-2.64
7.78
16.87
24.31
29.96
33.79
35.78
35.96
34.44
31.49
27.47
22.85
18.10
13.66
9.83
6.81
4.62
3.16
2.31
1.95
2.01
2.48
3.29
4.23
4.98
5.22
4.67
3.29
1.19
-1.39
-4.20
-7.06
-9.86
-12.59
-15.28
-18.04
-21.02
-24.38
-28.24
-32.46
-36.60
-39.93
-41.55
-40.67
-36.88
-30.27
-21.43
-11.27
-0.80
9.10
17.80
24.89
30.14
33.46
34.83
34.34
32.21
28.78
24.51
19.87
15.30
11.16
7.64
4.81
2.66
1.11
0.09
-0.42
-0.44
-0.01
0.77
1.71
2.53
2.90
2.55
1.33
-0.74
-3.45
-6.49
-9.55
-12.43
-15.13
-17.81
-20.75
-24.17
-28.14
-32.47
-36.68
-40.03
-41.66
-40.78
-36.92
-30.08
-20.81
-10.07
1.00
11.34
20.22
27.24
32.32
35.50
36.88
36.59
34.78
31.72
27.80
23.45
19.08
15.03
11.52
8.61
6.32
4.60
3.37
2.62
2.34
2.54
3.15
3.99
4.77
5.13
4.76
3.53
1.51
-1.06
-3.90
-6.73
-9.41
-11.92
-14.33
-16.83
-19.60
-22.85
-26.69
-30.98
-35.26
-38.73
-40.46
-39.56
-35.56
-28.52
-19.06
-8.26
2.70
12.73
21.07
27.36
31.59
33.99
34.83
34.33
32.65
29.87
26.16
21.79
17.21
12.91
9.32
6.64
4.92
4.03
3.80
4.06
4.67
5.52
6.42
7.18
7.59
7.48
6.73
5.34
3.37
0.98
-1.64
-4.29
-6.84
-9.28
-11.64
-14.04
-16.60
-19.46
-22.70
-26.37
-30.37
-34.36
-37.66
-39.39
-38.65
-34.91
-28.18
-19.08
-8.68
1.85
11.51
19.65
25.96
30.40
33.06
34.08
33.61
31.80
28.84
25.01
20.67
16.27
12.25
8.98
6.62
5.16
4.46
4.32
4.58
5.09
5.71
6.31
6.70
6.77
6.44
5.70
4.53
2.93
0.88
-1.63
-4.51
-7.66
-10.91
-14.10
-17.11
-19.97
-22.77
-25.71
-28.96
-32.57
-36.32
-39.64
-41.73
-41.71
-38.92
-33.16
-24.83
-14.83
-4.28
5.73
14.43
21.38
26.44
29.65
31.07
30.79
28.97
25.91
22.02
17.76
13.59
9.80
6.58
3.97
1.99
0.63
-0.07
-0.13
0.43
1.47
2.76
3.99
4.78
4.85
4.03
2.38
0.07
-2.59
-5.36
-8.07
-10.65
-13.12
-15.54
-18.03
-20.76
-23.93
-27.68
-31.92
-36.23
-39.83
-41.74
-41.06
-37.26
-30.38
-21.04
-10.26
0.78
11.06
19.87
26.80
31.74
34.70
35.80
35.18
33.10
29.88
25.93
21.67
17.44
13.55
10.24
7.69
6.04
5.33
5.48
6.28
7.43
8.63
9.62
10.24
10.45
10.26
9.69
8.77
7.53
5.99
4.18
2.14
-0.12
-2.64
-5.46
-8.66
-12.33
-16.51
-21.25
-26.59
-32.43
-38.47
-44.06
-48.22
-49.88
-48.18
-42.92
-34.70
-24.75
-14.63
-5.72
1.03
5.25
6.93
6.34
3.83
-0.21
-5.32
-11.05
-17.07
-23.20
-29.37
-35.35
-40.57
-44.15
-45.18
-43.13
-38.20
-31.31
-23.73
-16.59
-10.57
-5.76
-1.91
1.35
4.29
7.01
9.48
11.46
12.50
12.04
9.50
4.65
-2.22
-10.29
-18.44
-25.59
-31.10
-34.92
-37.47
-39.45
-41.37
-43.36
-45.00
-45.42
-43.53
-38.36
-29.34
-16.47
-0.32
18.12
37.59
56.84
74.69
90.12
102.38
110.94
115.57
116.40
113.91
108.88
102.28
95.09
88.18
82.15
77.23
73.29
70.02
67.03
64.10
61.15
58.12
54.78
50.61
44.92
37.30
28.04
18.21
9.25
2.18
-3.05
-7.67
-13.54
-22.05
-33.36
-46.15
-58.16
-67.19
-71.98
-72.52
-69.70
-64.60
-58.00
-50.20
-41.12
-30.58
-18.53
-5.33
8.24
21.14
32.26
40.70
46.08
48.78
49.95
51.18
53.52
57.13
61.31
65.00
67.29
67.71
66.09
62.37
56.52
48.03
36.58
22.52
7.01
-8.41
-22.65
-35.63
-48.79
-62.06
-74.10
-82.88
-87.13
-87.16
-84.60
-81.45
-79.11
-78.57
-78.00
-75.52
-69.90
-61.21
-50.84
-40.75
-32.52
-26.80
-22.95
-19.97
-17.36
-14.84
-12.54
-10.96
-10.45
-10.86
-11.73
-12.18
-11.39
-9.15
-4.88
2.08
12.06
24.75
39.24
53.77
66.84
77.27
80.74
75.03
61.54
44.29
27.15
14.13
4.60
-1.75
-4.54
-3.41
1.31
8.52
15.91
20.69
20.96
16.48
9.28
2.36
-1.68
-1.06
4.45
13.52
23.98
33.92
41.93
47.67
51.03
51.87
50.27
46.49
40.92
34.15
27.04
20.43
15.23
12.03
10.90
11.62
13.73
16.48
19.07
20.78
21.04
19.63
16.53
11.90
6.11
-0.31
-6.95
-13.60
-20.41
-27.77
-36.08
-45.53
-55.91
-66.52
-76.31
-84.17
-89.21
-90.97
-89.49
-85.18
-78.68
-70.73
-62.07
-53.43
-45.44
-38.66
-33.44
-29.97
-28.18
-27.81
-28.50
-29.83
-31.38
-32.85
-33.95
-34.45
-34.20
-33.12
-31.30
-28.98
-26.53
-24.37
-22.81
-21.97
-21.72
-21.79
-21.87
-21.69
-21.12
-20.19
-19.06
-17.99
-17.31
-17.23
-17.72
-18.34
-18.23
-16.31
-11.64
-3.71
7.30
20.61
35.01
49.22
62.15
73.05
81.51
87.46
91.01
92.40
91.89
89.71
86.00
80.86
74.40
66.80
58.36
49.45
40.51
31.97
24.21
17.52
12.11
7.98
4.91
2.46
0.07
-2.80
-6.45
-10.84
-15.65
-20.40
-24.69
-28.35
-31.52
-34.51
-37.70
-41.31
-45.25
-49.12
-52.19
-53.58
-52.47
-48.36
-41.26
-31.68
-20.55
-8.92
2.28
12.37
20.92
27.69
32.50
35.29
36.13
35.27
33.12
30.16
26.85
23.50
20.28
17.22
14.34
11.65
9.23
7.17
5.57
4.49
3.91
3.68
3.59
3.35
2.76
1.77
0.49
-0.85
-2.03
-2.85
-3.23
-3.16
-2.74
-2.14
-1.70
-1.81
-2.80
-4.80
-7.44
-9.95
-11.25
-10.36
-6.69
-0.30
8.09
17.35
26.28
33.96
39.97
44.35
47.36
49.27
50.13
49.70
47.69
43.93
38.59
32.14
25.19
18.31
11.89
6.11
1.10
-3.02
-6.08
-7.98
-8.85
-8.99
-8.90
-9.06
-9.76
-11.01
-12.65
-14.39
-16.03
-17.51
-18.84
-20.08
-21.28
-22.42
-23.56
-24.81
-26.31
-28.16
-30.32
-32.59
-34.68
-36.32
-37.23
-37.16
-35.73
-32.56
-27.32
-19.99
-11.00
-1.15
8.59
17.41
24.79
30.55
34.65
37.12
37.98
37.41
35.80
33.70
31.67
30.03
28.78
27.65
26.31
24.50
22.22
19.64
17.02
14.57
12.41
10.57
9.07
7.86
6.86
5.87
4.52
2.44
-0.65
-4.72
-9.42
-14.14
-18.26
-21.36
-23.39
-24.63
-25.51
-26.41
-27.52
-28.74
-29.78
-30.21
-29.57
-27.46
-23.68
-18.28
-11.62
-4.33
2.89
9.37
14.68
18.65
21.36
23.01
23.84
24.01
23.59
22.58
20.82
18.18
14.59
10.17
5.32
0.57
-3.55
-6.71
-8.84
-10.16
-10.97
-11.54
-12.03
-12.54
-13.15
-14.04
-15.43
-17.40
-19.85
-22.37
-24.43
-25.58
-25.71
-25.24
-24.91
-25.42
-27.03
-29.33
-31.38
-32.14
-30.91
-27.58
-22.48
-16.17
-9.05
-1.39
6.58
14.44
21.52
27.10
30.66
32.14
31.91
30.57
28.65
26.40
23.82
20.75
17.10
13.03
8.91
5.25
2.44
0.62
-0.34
-0.76
-0.98
-1.24
-1.62
-2.18
-2.94
-4.00
-5.45
-7.31
-9.49
-11.79
-13.80
-15.14
-15.63
-15.49
-15.26
-15.68
-17.27
-20.10
-23.54
-26.39
-27.34
-25.51
-20.79
-13.81
-5.61
2.74
10.27
16.41
21.02
24.21
26.13
26.94
26.79
25.88
24.37
21.90
18.25
13.60
8.46
3.40
-1.17
-4.96
-7.78
-9.59
-11.46
-14.19
-17.80
-21.64
-25.09
-27.88
-30.05
-31.79
-33.31
-36.26
-41.57
-48.74
-56.34
-63.22
-69.07
-74.16
-78.78
-82.90
-88.13
-95.13
-102.93
-109.81
-114.73
-117.87
-120.07
-121.95
-110.92
-81.47
-38.25
7.25
45.46
72.59
89.01
96.94
99.07
97.77
92.68
83.39
70.90
57.28
44.81
35.11
29.10
26.97
28.25
30.47
30.96
29.74
27.87
26.43
25.82
25.74
25.56
24.66
21.76
16.49
9.90
3.75
-0.42
-1.92
-1.01
1.49
4.66
7.29
8.77
9.35
9.47
9.48
9.46
9.27
8.70
7.60
5.71
2.84
-1.00
-5.79
-11.39
-17.54
-23.82
-29.74
-34.88
-39.07
-42.42
-45.25
-47.99
-50.99
-54.40
-58.18
-62.17
-66.12
-69.86
-73.26
-76.31
-79.11
-81.79
-84.42
-86.86
-88.79
-89.73
-89.17
-86.77
-82.32
-75.68
-66.72
-55.26
-41.21
-24.76
-6.42
13.06
32.86
52.22
70.40
86.57
99.75
108.99
113.68
113.86
110.28
104.12
96.56
88.42
80.05
71.52
62.95
54.62
46.96
40.31
34.69
29.82
25.23
20.55
15.66
10.71
5.99
1.71
-2.13
-5.76
-9.54
-13.80
-18.80
-24.61
-31.05
-37.62
-43.49
-47.56
-48.68
-46.01
-39.26
-28.86
-15.86
-1.56
12.79
26.26
38.26
48.52
56.86
63.20
67.53
69.98
70.81
70.39
69.02
66.89
64.05
60.54
56.53
52.37
48.56
45.59
43.71
42.84
42.54
42.23
41.34
39.42
36.29
31.98
26.66
20.64
14.21
7.61
0.91
-5.95
-13.09
-20.38
-27.32
-32.95
-36.08
-35.66
-31.24
-23.10
-12.22
0.02
12.24
23.36
32.63
39.61
44.11
46.13
45.90
43.87
40.57
36.49
31.95
27.11
22.06
16.94
12.02
7.68
4.27
1.98
0.76
0.37
0.43
0.57
0.48
-0.04
-1.08
-2.64
-4.60
-6.79
-9.02
-11.18
-13.32
-15.62
-18.36
-21.63
-25.25
-28.66
-30.98
-31.28
-28.87
-23.51
-15.53
-5.75
4.77
14.86
23.55
30.18
34.49
36.58
36.79
35.56
33.24
30.09
26.21
21.75
16.95
12.18
7.83
4.20
1.41
-0.60
-2.00
-2.93
-3.45
-3.57
-3.34
-2.91
-2.52
-2.41
-2.73
-3.50
-4.64
-6.02
-7.56
-9.23
-11.01
-12.78
-14.22
-14.86
-14.13
-11.55
-6.94
-0.54
7.02
14.91
22.31
28.68
33.75
37.50
40.00
41.28
41.31
40.06
37.57
34.02
29.70
24.97
20.14
15.42
10.93
6.77
2.96
-0.51
-3.69
-6.67
-9.50
-12.21
-14.78
-17.16
-19.33
-21.32
-23.20
-25.04
-26.90
-28.87
-30.97
-33.14
-35.19
-36.73
-37.21
-36.12
-33.15
-28.36
-22.23
-15.44
-8.68
-2.44
3.04
7.67
11.40
14.10
15.61
15.89
15.10
13.62
11.93
10.45
9.39
8.68
8.13
7.51
6.76
5.95
5.19
4.58
4.03
3.36
2.39
1.00
-0.81
-2.94
-5.28
-7.76
-10.35
-13.07
-15.92
-18.79
-21.44
-23.48
-24.43
-23.84
-21.44
-17.27
-11.70
-5.36
1.02
6.82
11.60
15.17
17.45
18.47
18.32
17.11
15.04
12.34
9.29
6.14
3.09
0.30
-2.07
-3.84
-4.86
-5.01
-4.35
-3.09
-1.59
-0.25
0.56
0.60
-0.22
-1.80
-3.90
-6.22
-8.50
-10.66
-12.82
-15.17
-17.91
-20.99
-24.12
-26.73
-28.25
-28.25
-26.57
-23.38
-19.03
-13.97
-8.65
-3.53
0.96
4.43
6.58
7.25
6.47
4.45
1.57
-1.72
-4.93
-7.69
-9.75
-11.03
-11.57
-11.49
-10.94
-10.04
-8.89
-7.64
-6.45
-5.50
-4.94
-4.91
-5.40
-6.37
-7.67
-9.10
-10.51
-11.78
-12.94
-14.13
-15.57
-17.43
-19.75
-22.38
-24.95
-26.91
-27.68
-26.71
-23.69
-18.60
-11.83
-4.07
3.82
11.03
16.99
21.44
24.43
26.18
26.96
26.98
26.38
25.23
23.61
21.70
19.79
18.24
17.36
17.33
18.09
19.36
20.73
21.84
22.47
22.58
22.29
21.73
20.96
19.96
18.58
16.62
13.91
10.28
5.64
-0.03
-6.70
-14.21
-22.29
-30.53
-38.50
-45.87
-52.51
-58.53
-64.19
-69.76
-75.25
-80.31
-84.29
-86.37
-85.89
-82.58
-76.62
-68.65
-59.50
-50.02
-40.88
-32.54
-25.26
-19.24
-14.58
-11.33
-9.38
-8.46
-8.13
-7.92
-7.43
-6.42
-4.79
-2.50
0.43
4.05
8.34
13.20
18.41
23.64
28.55
32.87
36.47
39.36
41.69
43.67
45.50
47.30
49.01
50.36
50.93
50.33
48.35
45.05
40.80
36.07
31.25
26.52
21.79
16.81
11.34
5.28
-1.21
-7.64
-13.26
-17.19
-18.67
-17.26
-13.02
-6.48
1.45
9.79
17.70
24.61
30.19
34.34
37.01
38.24
38.12
36.80
34.50
31.53
28.20
24.75
21.38
18.24
15.51
13.38
12.07
11.76
12.41
13.80
15.54
17.22
18.53
19.34
19.65
19.53
19.04
18.19
16.99
15.53
13.90
12.24
10.60
8.96
7.26
5.47
3.65
1.88
0.27
-1.20
-2.63
-4.19
-6.02
-8.17
-10.52
-12.85
-14.97
-16.73
-18.10
-19.16
-20.06
-20.91
-21.80
-22.76
-23.75
-24.70
-25.48
-25.99
-26.19
-26.19
-26.21
-26.54
-27.42
-28.92
-30.79
-32.52
-33.38
-32.59
-29.55
-24.05
-16.34
-7.10
2.73
12.17
20.45
27.10
32.02
35.26
36.96
37.29
36.42
34.57
32.06
29.26
26.55
24.21
22.44
21.29
20.76
20.80
21.35
22.35
23.79
25.60
27.68
29.80
31.64
32.78
32.80
31.37
28.29
23.57
17.42
10.25
2.66
-4.76
-11.50
-17.39
-22.54
-27.28
-31.95
-36.67
-41.30
-45.48
-48.85
-51.20
-52.53
-52.97
-52.76
-52.13
-51.29
-50.43
-49.63
-48.82
-47.63
-45.56
-42.03
-36.65
-29.41
-20.72
-11.31
-2.03
6.32
13.16
18.14
21.21
22.45
22.08
20.42
17.73
14.30
10.39
6.33
2.48
-0.71
-2.91
-3.95
-3.91
-3.07
-1.78
-0.35
1.04
2.30
3.39
4.24
4.76
4.88
4.54
3.74
2.51
0.82
-1.32
-3.89
-6.78
-9.84
-12.84
-15.61
-18.01
-20.01
-21.74
-23.42
-25.29
-27.49
-29.86
-31.90
-32.80
-31.75
-28.13
-21.80
-13.11
-2.84
8.05
18.60
28.05
35.86
41.72
45.52
47.32
47.33
45.86
43.31
40.08
36.62
33.30
30.41
28.06
26.23
24.84
23.75
22.92
22.34
22.05
22.03
22.20
22.40
22.41
22.05
21.23
19.84
17.89
15.46
12.76
10.04
7.53
5.32
3.45
1.75
-0.03
-2.14
-4.64
-7.38
-10.17
-12.84
-15.38
-17.69
-19.61
-20.99
-21.73
-21.85
-21.63
-21.52
-21.93
-23.10
-24.60
-25.66
-25.84
-25.73
-26.61
-29.42
-34.05
-39.34
-44.42
-48.38
-50.93
-52.51
-53.73
-54.91
-55.91
-56.28
-54.76
-51.05
-45.39
-38.52
-31.37
-24.61
-18.41
-12.49
-6.34
0.46
7.85
15.62
23.40
30.76
37.35
42.75
46.29
46.95
43.56
35.29
22.39
6.34
-10.51
-25.72
-37.56
-45.50
-50.10
-52.54
-53.99
-55.17
-56.29
-57.33
-58.23
-58.92
-59.12
-58.15
-54.99
-48.60
-38.37
-24.59
-8.51
7.98
22.99
35.23
44.38
50.94
55.70
59.37
62.28
64.38
65.28
64.57
61.96
57.45
51.33
44.23
37.05
31.16
27.75
27.41
29.86
34.21
39.35
44.33
48.53
51.60
54.05
56.18
57.83
58.30
56.89
53.31
47.85
41.06
33.55
26.82
21.88
18.99
17.55
16.77
16.28
16.23
16.93
18.61
22.61
29.54
39.17
50.15
61.01
71.02
80.31
89.53
90.72
79.36
56.51
29.01
3.71
-16.65
-32.95
-47.38
-61.51
-75.44
-85.38
-90.28
-90.24
-87.28
-84.33
-83.79
-86.64
-92.49
-99.98
-106.49
-110.64
-111.41
-108.97
-104.06
-97.24
-88.84
-79.39
-69.87
-60.92
-53.49
-48.22
-45.64
-45.86
-48.31
-51.97
-55.75
-58.77
-60.13
-59.51
-56.85
-52.66
-47.61
-42.18
-36.55
-30.66
-24.41
-17.66
-10.52
-3.20
3.85
10.21
15.60
20.04
23.78
27.25
30.88
35.01
39.84
45.47
52.00
59.64
68.65
79.14
90.79
102.73
113.58
121.79
126.10
125.89
121.35
113.45
103.44
92.52
81.54
70.99
61.06
51.78
43.19
35.39
28.64
23.05
18.49
14.49
10.41
5.71
0.19
-5.89
-11.87
-16.89
-20.44
-22.69
-24.41
-26.53
-29.76
-34.35
-39.95
-45.87
-50.82
-53.89
-54.81
-53.77
-50.97
-46.45
-40.20
-32.30
-23.08
-12.13
0.32
13.32
25.69
36.81
46.90
56.66
66.85
78.05
92.17
110.12
131.22
153.64
175.29
194.17
208.14
215.05
213.18
203.86
188.90
169.92
148.58
127.35
109.07
95.92
88.62
73.17
43.44
2.67
-40.28
-78.78
-110.45
-135.38
-154.15
-167.17
-174.72
-175.02
-167.65
-154.40
-138.73
-123.78
-111.73
-103.51
-98.93
-96.95
-94.69
-90.44
-84.74
-80.35
-78.73
-80.02
-82.66
-83.90
-80.86
-70.95
-54.28
-33.19
-13.35
0.87
7.85
8.64
5.50
0.39
-5.26
-10.95
-16.42
-21.11
-23.65
-22.94
-18.96
-12.78
-6.04
0.00
4.72
7.97
9.83
10.78
11.36
12.24
14.02
17.03
20.99
25.07
28.11
29.11
27.76
24.42
19.95
15.09
10.49
6.44
2.91
-0.33
-3.55
-6.77
-9.80
-12.33
-14.10
-15.01
-15.20
-14.95
-14.48
-13.83
-12.84
-11.32
-9.23
-6.82
-4.50
-2.70
-1.70
-1.56
-2.18
-3.38
-5.05
-7.09
-9.42
-11.78
-13.83
-15.25
-15.90
-15.86
-15.36
-14.66
-13.95
-13.22
-12.33
-11.00
-8.99
-6.10
-2.18
2.82
8.93
15.99
23.34
30.16
35.58
38.78
39.09
36.03
29.40
19.37
6.58
-7.91
-22.62
-35.94
-46.34
-52.55
-53.80
-49.98
-41.83
-30.92
-19.32
-8.99
-1.23
3.65
6.24
7.57
8.49
9.36
9.97
9.91
9.01
7.56
6.34
6.37
8.59
13.61
21.70
32.78
46.49
61.97
77.75
91.75
101.64
105.69
103.59
96.70
87.62
78.97
72.19
66.90
61.29
53.24
41.59
26.68
10.13
-6.13
-20.69
-33.11
-43.60
-52.52
-59.95
-65.67
-69.38
-71.02
-70.86
-69.31
-66.67
-62.95
-57.95
-51.48
-43.62
-34.84
-25.92
-17.65
-10.66
-5.23
-1.33
1.25
2.76
3.41
3.30
2.49
1.05
-0.92
-3.29
-5.89
-8.60
-11.20
-13.43
-14.91
-15.20
-13.89
-10.74
-5.83
0.34
6.92
12.81
16.98
18.78
18.05
15.12
10.67
5.47
0.18
-4.69
-8.83
-12.16
-14.76
-17.02
-19.43
-22.45
-26.19
-30.22
-33.66
-35.39
-34.50
-30.67
-24.22
-16.01
-7.07
1.65
9.49
16.03
21.07
24.49
26.27
26.47
25.26
22.92
19.74
15.98
11.84
7.42
2.84
-1.78
-6.24
-10.22
-13.40
-15.52
-16.51
-16.58
-16.18
-15.93
-16.39
-17.93
-20.57
-24.03
-27.84
-31.57
-34.99
-38.18
-41.51
-45.46
-50.46
-56.61
-63.50
-70.21
-75.37
-77.61
-75.84
-69.62
-59.27
-45.75
-30.42
-14.68
0.29
13.68
25.09
34.41
41.69
47.02
50.50
52.23
52.37
51.14
48.93
46.12
43.04
39.85
36.57
33.23
29.96
27.00
24.65
23.11
22.28
21.80
21.13
19.80
17.58
14.54
10.97
7.22
3.54
-0.01
-3.57
-7.40
-11.85
-17.18
-23.51
-30.59
-37.72
-43.77
-47.32
-47.12
-42.43
-33.32
-20.67
-5.89
9.47
24.08
37.01
47.70
55.87
61.43
64.40
65.00
63.61
60.72
56.79
52.20
47.14
41.72
36.06
30.34
24.89
20.10
16.36
13.89
12.66
12.38
12.49
12.35
11.39
9.25
5.95
1.76
-2.80
-7.27
-11.32
-15.00
-18.63
-22.73
-27.80
-34.08
-41.36
-48.88
-55.37
-59.31
-59.35
-54.71
-45.46
-32.56
-17.54
-2.03
12.60
25.49
36.25
44.70
50.74
54.28
55.34
54.16
51.18
47.01
42.18
37.11
32.01
27.00
22.17
17.67
13.74
10.59
8.40
7.20
6.86
7.09
7.39
7.24
6.18
3.96
0.64
-3.51
-8.11
-12.78
-17.35
-21.77
-26.19
-30.84
-35.97
-41.73
-48.01
-54.24
-59.36
-62.02
-60.90
-55.20
-45.01
-31.28
-15.62
0.25
14.90
27.47
37.60
45.28
50.59
53.57
54.22
52.62
49.02
43.89
37.91
31.80
26.13
21.25
17.26
14.08
11.63
9.84
8.72
8.23
8.25
8.47
8.51
8.01
6.71
4.55
1.61
-1.96
-5.93
-10.08
-14.23
-18.24
-22.06
-25.75
-29.50
-33.58
-38.31
-43.88
-50.21
-56.69
-62.21
-65.36
-64.76
-59.59
-49.90
-36.61
-21.27
-5.61
8.90
21.27
30.99
37.95
42.21
44.01
43.62
41.43
37.83
33.27
28.19
22.99
18.07
13.72
10.20
7.67
6.19
5.73
6.12
7.06
8.13
8.90
9.02
8.31
6.82
4.74
2.29
-0.38
-3.24
-6.35
-9.75
-13.46
-17.38
-21.31
-25.04
-28.38
-31.25
-33.72
-36.12
-38.90
-42.47
-46.93
-51.89
-56.31
-58.81
-57.99
-52.97
-43.68
-30.93
-16.16
-1.03
13.04
25.07
34.58
41.44
45.72
47.51
46.96
44.28
39.79
33.97
27.41
20.74
14.45
8.85
3.99
-0.34
-4.42
-8.58
-13.01
-17.73
-22.59
-27.28
-31.49
-34.89
-37.28
-38.68
-39.36
-39.90
-40.97
-43.17
-46.63
-50.98
-55.30
-58.48
-59.57
-58.10
-54.09
-47.87
-39.86
-30.37
-19.70
-8.25
3.38
14.53
24.86
34.62
44.79
56.81
71.99
90.90
113.02
136.78
160.01
180.52
196.74
207.98
214.40
216.80
216.14
213.24
208.63
202.57
195.16
186.57
177.05
166.88
156.27
145.27
133.90
122.28
110.74
99.84
90.20
82.29
76.30
72.21
69.91
69.34
70.39
72.73
75.56
77.59
77.30
73.37
65.20
53.09
38.22
22.23
6.75
-6.91
-18.05
-26.50
-32.62
-37.13
-41.04
-45.41
-51.22
-59.02
-68.75
-79.60
-90.17
-98.78
-104.05
-105.26
-102.59
-96.97
-89.77
-82.32
-75.65
-70.37
-66.85
-65.29
-65.83
-68.55
-73.27
-79.54
-86.65
-93.71
-99.83
-104.30
-106.63
-106.67
-104.53
-100.59
-95.38
-89.51
-83.53
-77.87
-72.77
-68.36
-64.62
-61.48
-58.87
-56.75
-55.14
-54.06
-53.53
-53.50
-53.85
-54.45
-55.16
-55.88
-56.50
-56.94
-57.16
-57.17
-57.06
-56.93
-56.90
-57.02
-57.28
-57.68
-58.21
-58.88
-59.64
-60.26
-60.33
-59.30
-56.60
-51.86
-45.00
-36.29
-26.30
-15.76
-5.48
3.85
11.68
17.64
21.59
23.50
23.54
21.99
19.31
16.04
12.74
9.91
7.86
6.67
6.22
6.23
6.42
6.54
6.48
6.27
6.00
5.74
5.43
4.89
3.84
2.09
-0.37
-3.36
-6.59
-9.81
-12.93
-16.00
-19.18
-22.52
-25.97
-29.28
-32.18
-34.47
-36.13
-37.32
-38.31
-39.41
-40.92
-43.02
-45.84
-49.37
-53.41
-57.49
-60.86
-62.55
-61.63
-57.47
-49.96
-39.63
-27.53
-14.98
-3.25
6.68
14.30
19.48
22.40
23.35
22.68
20.65
17.58
13.78
9.69
5.77
2.50
0.21
-0.97
-1.13
-0.51
0.55
1.74
2.76
3.42
3.55
3.06
1.93
0.23
-1.97
-4.61
-7.74
-11.50
-16.00
-21.23
-27.00
-32.97
-38.78
-44.21
-49.24
-54.06
-59.04
-64.59
-71.09
-78.69
-87.14
-95.53
-102.34
-105.66
-103.78
-95.80
-82.02
-63.94
-43.73
-23.60
-5.14
10.78
23.86
34.02
41.09
44.87
45.32
42.80
38.18
32.61
27.26
22.98
20.16
18.79
18.69
19.59
21.31
23.67
26.47
29.40
32.08
34.12
35.20
35.05
33.55
30.59
26.18
20.52
14.09
7.67
2.17
-1.66
-3.50
-3.55
-2.38
-0.62
1.35
3.34
5.21
6.48
6.22
3.14
-3.91
-15.40
-30.75
-48.31
-65.64
-80.03
-89.09
-91.16
-85.54
-72.57
-53.55
-30.52
-5.88
17.95
38.99
55.91
68.23
76.11
80.14
81.06
79.52
76.08
71.30
65.85
60.52
56.08
53.07
51.63
51.56
52.45
53.94
55.84
58.13
60.82
63.83
67.02
70.18
73.18
76.01
78.61
80.74
81.88
81.29
78.31
72.70
64.78
55.47
45.99
37.51
30.71
25.67
21.90
18.62
15.10
10.92
6.10
0.99
-3.92
-8.32
-12.20
-15.95
-20.21
-25.76
-33.13
-42.38
-52.74
-62.60
-69.74
-71.85
-67.31
-55.77
-38.35
-17.29
4.71
25.21
42.61
56.18
65.81
71.74
74.27
73.75
70.63
65.57
59.35
52.78
46.59
41.34
37.38
34.86
33.75
33.88
34.95
36.57
38.39
40.09
41.39
42.05
41.83
40.50
37.87
33.96
28.97
23.34
17.53
11.93
6.74
1.89
-2.84
-7.73
-12.91
-18.36
-23.84
-29.01
-33.51
-37.11
-39.78
-41.75
-43.44
-45.45
-48.46
-53.04
-59.44
-67.25
-75.27
-81.66
-84.34
-81.61
-72.81
-58.47
-40.21
-20.18
-0.44
17.37
32.25
43.66
51.39
55.47
56.15
53.96
49.71
44.32
38.71
33.59
29.40
26.33
24.36
23.42
23.44
24.36
26.12
28.55
31.32
33.89
35.61
35.89
34.37
31.02
26.20
20.55
14.76
9.38
4.59
0.22
-4.22
-9.22
-15.02
-21.46
-28.02
-34.01
-38.86
-42.43
-45.02
-47.34
-50.27
-54.58
-60.64
-68.19
-76.20
-82.95
-86.37
-84.61
-76.71
-62.91
-44.74
-24.51
-4.64
13.00
27.38
38.29
46.00
50.89
53.32
53.50
51.73
48.38
44.03
39.31
34.90
31.35
29.06
28.22
28.81
30.59
33.18
36.08
38.79
40.87
42.01
42.08
41.11
39.21
36.50
33.10
29.09
24.55
19.63
14.52
9.47
4.69
0.31
-3.71
-7.51
-11.36
-15.43
-19.78
-24.30
-28.73
-32.82
-36.37
-39.36
-42.00
-44.68
-47.95
-52.43
-58.54
-66.23
-74.71
-82.39
-87.10
-86.77
-80.11
-67.17
-49.37
-29.07
-8.83
9.28
24.07
35.23
42.99
47.76
49.92
49.81
47.82
44.50
40.52
36.62
33.41
31.33
30.56
31.08
32.69
35.11
38.02
41.13
44.18
46.91
48.99
50.10
49.92
48.28
45.25
41.20
36.66
32.13
27.95
24.13
20.47
16.72
12.68
8.36
3.92
-0.37
-4.25
-7.54
-10.22
-12.46
-14.58
-17.02
-20.11
-23.96
-28.37
-32.86
-36.94
-40.25
-42.80
-44.87
-47.03
-49.92
-54.10
-59.92
-67.23
-75.16
-82.10
-85.99
-84.87
-77.58
-64.29
-46.47
-26.45
-6.66
11.04
25.64
36.87
44.93
50.04
52.34
51.93
49.07
44.27
38.37
32.36
27.14
23.36
21.23
20.68
21.37
22.98
25.27
28.05
31.16
34.32
37.06
38.82
39.14
37.81
34.99
31.17
26.99
23.00
19.44
16.23
13.02
9.45
5.29
0.59
-4.34
-9.06
-13.18
-16.52
-19.16
-21.42
-23.69
-26.27
-29.23
-32.44
-35.61
-38.51
-41.08
-43.42
-45.83
-48.75
-52.65
-57.96
-64.82
-72.80
-80.66
-86.48
-88.13
-83.94
-73.46
-57.62
-38.50
-18.60
-0.06
15.78
28.44
37.95
44.53
48.28
49.24
47.57
43.71
38.41
32.62
27.25
23.02
20.28
19.05
19.11
20.16
21.95
24.30
27.06
29.97
32.64
34.52
35.07
33.93
31.06
26.78
21.69
16.48
11.64
7.35
3.40
-0.67
-5.34
-10.84
-17.02
-23.38
-29.30
-34.28
-38.10
-40.92
-43.21
-45.58
-48.65
-52.95
-58.74
-65.84
-73.42
-80.03
-83.83
-83.07
-76.74
-64.85
-48.57
-29.81
-10.72
6.88
21.79
33.45
41.85
47.22
49.89
50.19
48.44
44.96
40.19
34.72
29.26
24.56
21.23
19.61
19.71
21.25
23.76
26.76
29.80
32.53
34.66
35.94
36.19
35.29
33.25
30.22
26.36
21.93
17.14
12.21
7.30
2.54
-2.01
-6.35
-10.58
-14.80
-19.09
-23.42
-27.66
-31.62
-35.12
-38.05
-40.47
-42.64
-45.01
-48.17
-52.71
-58.94
-66.59
-74.62
-81.21
-84.25
-81.92
-73.35
-58.99
-40.47
-20.14
-0.32
17.22
31.54
42.43
50.06
54.77
56.87
56.65
54.44
50.67
45.84
40.53
35.35
30.90
27.70
26.14
26.34
28.15
31.13
34.69
38.24
41.25
43.34
44.25
43.86
42.25
39.63
36.35
32.74
29.01
25.16
21.05
16.48
11.41
6.01
0.64
-4.36
-8.81
-12.79
-16.53
-20.28
-24.16
-28.02
-31.62
-34.71
-37.25
-39.45
-41.80
-44.90
-49.33
-55.38
-62.82
-70.72
-77.45
-81.01
-79.53
-71.99
-58.61
-40.85
-20.98
-1.36
16.17
30.58
41.55
49.19
53.75
55.47
54.65
51.74
47.33
42.09
36.65
31.55
27.19
23.87
21.81
21.13
21.77
23.53
26.07
28.91
31.55
33.49
34.32
33.75
31.72
28.38
24.08
19.21
14.10
8.90
3.58
-1.90
-7.54
-13.23
-18.76
-24.06
-29.22
-34.49
-40.15
-46.31
-52.74
-58.97
-64.45
-68.76
-71.77
-73.66
-74.83
-75.81
-77.14
-79.23
-82.14
-85.41
-87.88
-87.88
-83.70
-74.20
-59.34
-40.35
-19.42
0.97
18.72
32.62
42.37
48.37
51.30
51.81
50.34
47.12
42.37
36.42
29.75
23.02
16.90
11.96
8.57
6.88
6.95
8.80
12.39
17.56
23.89
30.67
37.03
42.15
45.63
47.65
48.85
50.08
52.00
54.74
57.91
60.72
62.29
62.01
59.65
55.43
49.80
43.30
36.34
29.10
21.54
13.48
4.66
-5.12
-15.93
-27.57
-39.40
-50.26
-58.53
-62.47
-60.75
-53.04
-40.24
-24.29
-7.55
7.93
20.94
31.16
38.83
44.32
47.78
49.10
48.17
45.10
40.32
34.56
28.65
23.32
19.08
16.20
14.75
14.61
15.63
17.58
20.26
23.37
26.56
29.33
31.17
31.60
30.38
27.59
23.62
19.07
14.56
10.47
6.81
3.28
-0.59
-5.20
-10.68
-16.80
-23.11
-29.09
-34.36
-38.79
-42.53
-45.96
-49.54
-53.80
-59.16
-65.75
-73.17
-80.26
-85.25
-86.10
-81.16
-69.83
-52.83
-32.12
-10.25
10.34
27.97
41.87
52.07
58.92
62.78
63.87
62.35
58.50
52.85
46.17
39.37
33.25
28.37
25.00
23.14
22.65
23.29
24.83
26.99
29.48
31.91
33.86
34.91
34.67
32.93
29.69
25.23
19.99
14.57
9.43
4.88
0.89
-2.78
-6.52
-10.60
-15.09
-19.81
-24.35
-28.31
-31.44
-33.73
-35.43
-36.95
-38.77
-41.33
-45.00
-49.87
-55.69
-61.62
-66.30
-68.09
-65.56
-58.02
-45.81
-30.27
-13.36
3.02
17.46
29.24
38.24
44.58
48.43
49.85
48.91
45.86
41.16
35.55
29.88
24.95
21.36
19.45
19.20
20.32
22.36
24.77
27.10
29.03
30.40
31.17
31.31
30.74
29.36
27.10
23.98
20.20
16.09
11.94
7.96
4.17
0.43
-3.42
-7.47
-11.67
-15.90
-19.99
-23.86
-27.49
-30.89
-34.04
-36.90
-39.48
-41.90
-44.53
-47.84
-52.20
-57.54
-63.14
-67.65
-69.38
-66.92
-59.64
-47.98
-33.33
-17.61
-2.64
10.28
20.52
27.99
32.84
35.30
35.58
33.90
30.59
26.13
21.10
16.09
11.64
8.17
5.96
5.13
5.66
7.40
10.06
13.23
16.42
19.12
20.85
21.31
20.45
18.46
15.70
12.52
9.12
5.50
1.48
-3.13
-8.42
-14.20
-20.10
-25.59
-30.24
-33.82
-36.41
-38.40
-40.45
-43.24
-47.27
-52.55
-58.43
-63.62
-66.50
-65.51
-59.79
-49.39
-35.36
-19.38
-3.27
11.47
23.87
33.53
40.39
44.58
46.34
45.95
43.78
40.28
36.02
31.55
27.40
23.99
21.61
20.36
20.22
21.03
22.64
24.85
27.47
30.19
32.59
34.13
34.30
32.78
29.57
25.07
19.93
14.83
10.28
6.40
2.95
-0.53
-4.46
-9.04
-14.11
-19.22
-23.85
-27.61
-30.41
-32.49
-34.32
-36.49
-39.53
-43.81
-49.33
-55.58
-61.46
-65.47
-66.01
-61.95
-53.03
-40.02
-24.51
-8.39
6.67
19.62
30.03
37.94
43.56
46.98
48.23
47.30
44.30
39.61
33.87
27.86
22.37
18.00
15.09
13.67
13.59
14.53
16.17
18.13
20.00
21.35
21.82
21.31
20.02
18.40
17.04
16.42
16.66
17.62
18.90
20.19
21.33
22.44
23.76
25.48
27.51
29.44
30.62
30.36
28.17
23.94
17.92
10.66
2.78
-5.23
-13.11
-20.84
-28.63
-36.82
-45.74
-55.44
-65.50
-74.84
-81.88
-84.91
-82.68
-74.91
-62.48
-47.13
-30.98
-15.90
-3.12
6.79
13.77
17.99
19.70
19.19
16.87
13.28
9.03
4.66
0.61
-2.90
-5.78
-7.94
-9.32
-9.78
-9.29
-7.90
-5.92
-3.87
-2.42
-2.19
-3.55
-6.42
-10.16
-13.64
-15.53
-14.64
-10.31
-2.65
7.49
18.83
30.03
40.09
48.48
55.16
60.35
64.30
67.20
68.98
69.44
68.22
64.93
59.27
51.05
40.29
27.21
12.24
-3.88
-20.08
-35.00
-47.23
-55.54
-59.32
-58.75
-54.77
-48.82
-42.42
-36.76
-32.58
-30.15
-29.55
-30.78
-33.93
-39.06
-46.08
-54.66
-64.13
-73.58
-81.95
-88.21
-91.50
-91.29
-87.40
-80.02
-69.70
-57.24
-43.55
-29.58
-16.15
-3.91
6.66
15.31
21.96
26.64
29.53
30.80
30.56
28.89
25.88
21.66
16.58
11.08
5.69
0.84
-3.27
-6.74
-9.93
-13.37
-17.56
-22.67
-28.36
-33.75
-37.54
-38.37
-35.26
-27.96
-17.03
-3.74
10.38
23.87
35.65
45.09
51.95
56.20
57.97
57.46
54.94
50.83
45.63
39.99
34.55
29.85
26.26
23.88
22.66
22.47
23.16
24.62
26.68
28.99
31.06
32.32
32.32
30.89
28.22
24.78
21.03
17.28
13.54
9.59
5.15
0.12
-5.35
-10.92
-16.21
-20.93
-25.02
-28.62
-32.04
-35.68
-39.90
-44.90
-50.52
-56.07
-60.34
-61.85
-59.31
-52.14
-40.74
-26.44
-11.00
3.89
17.05
27.89
36.28
42.25
45.80
46.96
45.87
42.92
38.74
34.07
29.61
25.84
23.01
21.14
20.14
19.90
20.36
21.50
23.24
25.45
27.82
29.93
31.31
31.55
30.44
27.98
24.45
20.29
15.98
11.87
8.04
4.32
0.38
-4.07
-9.10
-14.44
-19.63
-24.16
-27.69
-30.20
-31.99
-33.58
-35.55
-38.44
-42.53
-47.65
-53.10
-57.67
-59.92
-58.56
-52.90
-43.10
-30.13
-15.46
-0.64
13.05
24.77
34.06
40.76
44.92
46.71
46.40
44.39
41.12
37.06
32.72
28.56
25.07
22.60
21.34
21.28
22.27
24.03
26.30
28.81
31.32
33.52
35.12
35.80
35.36
33.76
31.16
27.84
24.19
20.47
16.82
13.21
9.46
5.41
0.98
-3.71
-8.41
-12.87
-16.86
-20.34
-23.34
-26.01
-28.53
-31.16
-34.21
-38.00
-42.71
-48.04
-53.19
-56.79
-57.39
-53.86
-45.91
-34.21
-20.21
-5.61
8.03
19.70
28.89
35.51
39.68
41.59
41.54
39.84
36.90
33.13
28.92
24.64
20.65
17.26
14.75
13.33
13.06
13.88
15.62
17.98
20.56
22.91
24.56
25.12
24.38
22.33
19.22
15.41
11.29
7.16
3.15
-0.77
-4.78
-9.06
-13.66
-18.47
-23.18
-27.37
-30.75
-33.25
-35.12
-36.90
-39.19
-42.45
-46.77
-51.72
-56.41
-59.60
-60.04
-56.81
-49.63
-38.95
-25.88
-11.88
1.58
13.37
22.84
29.83
34.49
37.11
37.91
37.05
34.62
30.82
25.97
20.62
15.42
11.03
7.99
6.56
6.69
8.09
10.25
12.65
14.84
16.48
17.38
17.46
16.70
15.10
12.71
9.55
5.74
1.43
-3.22
-8.00
-12.78
-17.48
-22.04
-26.41
-30.55
-34.48
-38.35
-42.41
-46.98
-52.22
-57.82
-62.92
-66.13
-65.94
-61.29
-52.00
-38.94
-23.77
-8.42
5.48
16.98
25.75
31.95
35.83
37.59
37.35
35.23
31.48
26.61
21.25
16.05
11.55
8.04
5.61
4.26
3.96
4.70
6.38
8.75
11.34
13.53
14.74
14.65
13.24
10.82
7.81
4.59
1.36
-1.85
-5.10
-8.41
-11.65
-14.60
-16.96
-18.51
-19.18
-19.11
-18.69
-18.46
-19.00
-20.64
-23.28
-26.30
-28.49
-28.43
-24.88
-17.20
-5.64
8.74
24.41
39.80
53.72
65.39
74.41
80.55
83.71
83.87
81.24
76.31
69.71
62.15
54.22
46.40
39.06
32.56
27.14
22.94
19.87
17.61
15.71
13.65
11.04
7.59
3.26
-1.86
-7.56
-13.56
-19.65
-25.68
-31.56
-37.26
-42.75
-48.02
-53.10
-58.12
-63.25
-68.68
-74.51
-80.76
-87.32
-94.00
-100.56
-106.77
-112.38
-117.15
-120.94
-123.67
-125.28
-125.53
-123.88
-119.43
-111.17
-98.36
-80.91
-59.63
-36.08
-12.23
10.10
29.71
46.13
59.58
70.64
79.95
87.94
94.80
100.52
104.96
107.96
109.34
108.91
106.48
102.03
95.82
88.53
81.22
75.01
70.77
68.73
68.42
68.89
69.14
68.50
66.82
64.43
61.84
59.38
57.07
54.56
51.24
46.32
39.06
28.92
15.91
0.81
-14.70
-28.45
-38.51
-44.00
-45.68
-45.78
-47.18
-52.29
-62.03
-75.48
-90.24
-103.23
-111.67
-113.74
-108.78
-97.29
-80.76
-61.47
-42.01
-24.82
-11.58
-3.02
1.31
2.86
3.70
5.90
10.82
18.79
29.14
40.55
51.16
59.26
63.61
63.77
60.05
53.05
43.68
32.90
21.85
11.16
1.15
-8.20
-16.77
-24.32
-30.65
-35.37
-38.10
-38.37
-36.65
-34.10
-32.46
-33.42
-36.36
-40.26
-43.28
-45.55
-45.08
-40.39
-29.92
-14.36
4.15
22.72
38.23
48.79
53.88
54.38
51.36
46.26
40.57
35.82
33.11
32.41
33.51
36.05
40.08
45.42
52.36
61.06
71.21
81.37
86.04
80.55
64.68
43.44
22.89
7.05
-3.62
-11.05
-16.67
-21.12
-23.86
-24.26
-21.00
-15.32
-9.63
-6.34
-6.80
-10.93
-17.63
-24.88
-30.70
-33.91
-34.68
-33.79
-32.26
-30.96
-30.67
-32.08
-35.42
-40.38
-46.25
-52.25
-57.44
-60.99
-62.50
-62.02
-60.06
-57.24
-54.21
-51.77
-50.80
-51.95
-55.34
-60.33
-65.42
-68.76
-68.63
-64.07
-55.32
-43.44
-29.84
-15.77
-2.19
10.18
20.72
28.82
34.70
38.01
39.15
39.49
40.68
43.37
47.36
51.75
55.62
58.50
60.34
61.72
62.25
61.92
60.70
58.60
55.71
52.28
48.61
44.90
41.36
37.86
34.10
29.50
23.50
15.85
6.67
-3.54
-14.17
-24.54
-34.13
-42.49
-49.29
-54.27
-57.20
-58.04
-57.03
-54.75
-52.02
-49.69
-48.38
-48.27
-48.93
-49.32
-48.07
-43.89
-36.02
-24.59
-10.53
4.70
19.48
32.54
43.07
50.79
55.70
57.97
57.86
55.70
51.98
47.30
42.29
37.46
33.14
29.45
26.35
23.77
21.70
20.23
19.49
19.53
20.23
21.25
22.08
22.21
21.35
19.47
16.82
13.77
10.67
7.63
4.58
1.31
-2.36
-6.46
-10.90
-15.40
-19.71
-23.61
-26.98
-29.85
-32.33
-34.63
-37.03
-39.82
-43.10
-46.68
-49.96
-51.99
-51.77
-48.52
-42.03
-32.74
-21.61
-9.90
1.23
10.91
18.68
24.41
28.22
30.29
30.81
29.96
27.91
24.95
21.45
17.90
14.86
12.84
12.21
13.19
15.81
19.92
25.22
31.29
37.60
43.61
48.76
52.61
54.86
55.33
53.98
50.83
46.00
39.59
31.73
22.46
11.82
-0.11
-13.11
-26.77
-40.56
-53.92
-66.51
-78.30
-89.49
-100.27
-110.51
-119.59
-126.40
-129.76
-128.83
-123.45
-114.20
-102.16
-88.50
-74.21
-59.96
-46.13
-32.96
-20.62
-9.21
1.28
10.99
20.11
28.77
36.91
44.40
51.09
57.00
62.30
67.29
72.21
77.09
81.67
85.47
87.90
88.55
87.29
84.35
80.23
75.51
70.59
65.59
60.34
54.50
47.78
40.15
31.84
23.28
14.93
7.12
-0.08
-6.85
-13.46
-20.19
-27.21
-34.51
-41.91
-49.08
-55.48
-60.43
-63.17
-63.03
-59.68
-53.33
-44.72
-34.98
-25.32
-16.71
-9.68
-4.41
-0.84
1.12
1.50
0.38
-2.04
-5.41
-9.26
-13.21
-17.01
-20.50
-23.59
-26.04
-27.54
-27.70
-26.26
-23.08
-18.23
-11.93
-4.55
3.41
11.33
18.58
24.70
29.47
33.01
35.61
37.57
39.03
39.99
40.35
40.14
39.59
39.10
39.11
39.97
41.72
44.12
46.59
48.41
48.89
47.67
44.93
41.41
38.24
36.61
37.32
40.54
45.74
51.90
57.85
62.53
65.25
65.70
63.80
59.71
53.75
46.35
38.10
29.60
21.40
13.88
7.20
1.38
-3.62
-7.79
-11.08
-13.33
-14.47
-14.54
-13.75
-12.47
-11.07
-9.89
-9.13
-8.89
-9.22
-10.20
-11.98
-14.68
-18.37
-22.96
-28.21
-33.77
-39.28
-44.48
-49.18
-53.34
-57.03
-60.42
-63.67
-66.77
-69.44
-71.00
-70.60
-67.45
-61.18
-52.04
-40.87
-28.84
-17.15
-6.70
1.99
8.80
13.80
17.13
18.90
19.14
17.95
15.54
12.29
8.72
5.42
2.91
1.51
1.32
2.22
3.96
6.18
8.49
10.54
11.98
12.55
12.05
10.45
7.82
4.41
0.48
-3.69
-8.02
-12.48
-17.16
-22.09
-27.14
-32.08
-36.64
-40.63
-44.07
-47.18
-50.26
-53.64
-57.45
-61.54
-65.38
-68.13
-68.72
-66.23
-60.18
-50.71
-38.62
-25.15
-11.57
1.07
12.09
21.14
28.05
32.78
35.35
35.98
35.05
33.10
30.64
28.10
25.71
23.59
21.81
20.48
19.75
19.78
20.66
22.32
24.55
26.92
28.97
30.24
30.40
29.34
27.19
24.25
20.87
17.35
13.81
10.20
6.38
2.21
-2.32
-7.11
-11.96
-16.61
-20.85
-24.54
-27.66
-30.34
-32.90
-35.78
-39.38
-43.90
-49.04
-53.96
-57.41
-58.08
-55.08
-48.24
-38.23
-26.28
-13.82
-2.05
8.24
16.69
23.23
27.87
30.66
31.62
30.85
28.61
25.33
21.57
17.90
14.84
12.73
11.78
11.98
13.19
15.14
17.48
19.88
22.04
23.76
24.88
25.33
25.04
23.97
22.15
19.70
16.83
13.73
10.58
7.43
4.22
0.91
-2.55
-6.10
-9.65
-13.09
-16.31
-19.26
-21.88
-24.14
-26.04
-27.64
-29.18
-31.01
-33.58
-37.24
-42.03
-47.47
-52.58
-55.99
-56.39
-52.95
-45.56
-34.94
-22.40
-9.38
2.86
13.46
22.00
28.37
32.64
34.96
35.53
34.61
32.53
29.70
26.57
23.54
20.98
19.12
18.14
18.08
18.95
20.63
22.91
25.50
28.00
30.01
31.21
31.42
30.63
28.99
26.72
24.09
21.32
18.55
15.81
13.06
10.17
7.04
3.59
-0.14
-4.01
-7.78
-11.21
-14.08
-16.29
-17.89
-19.05
-20.04
-21.16
-22.78
-25.25
-28.85
-33.66
-39.31
-44.96
-49.30
-50.87
-48.55
-41.95
-31.55
-18.65
-4.86
8.32
19.83
29.17
36.21
41.04
43.76
44.43
43.21
40.41
36.55
32.28
28.29
25.09
22.97
21.89
21.65
21.96
22.62
23.56
24.79
26.30
27.92
29.32
30.08
29.85
28.50
26.16
23.16
19.86
16.56
13.34
10.13
6.73
2.98
-1.22
-5.83
-10.65
-15.38
-19.65
-23.16
-25.73
-27.45
-28.70
-30.07
-32.18
-35.43
-39.76
-44.58
-48.84
-51.38
-51.23
-47.90
-41.50
-32.61
-22.11
-10.94
-0.01
9.91
18.23
24.54
28.61
30.47
30.32
28.54
25.62
22.09
18.49
15.34
13.05
11.86
11.81
12.74
14.39
16.48
18.76
21.06
23.22
25.03
26.29
26.75
26.24
24.70
22.24
19.05
15.40
11.47
7.32
2.95
-1.73
-6.67
-11.71
-16.51
-20.72
-24.10
-26.67
-28.75
-30.91
-33.71
-37.56
-42.41
-47.71
-52.41
-55.20
-54.90
-50.76
-42.82
-31.87
-19.23
-6.40
5.39
15.37
23.24
29.08
33.04
35.27
35.84
34.87
32.56
29.24
25.37
21.43
17.88
15.03
13.09
12.11
12.03
12.74
14.14
16.10
18.46
20.91
23.00
24.22
24.09
22.45
19.49
15.72
11.74
8.02
4.73
1.70
-1.37
-4.75
-8.53
-12.57
-16.59
-20.31
-23.49
-26.11
-28.26
-30.24
-32.41
-35.19
-38.80
-43.13
-47.58
-51.11
-52.46
-50.56
-44.89
-35.71
-24.00
-11.13
1.51
12.82
22.16
29.26
34.12
36.82
37.56
36.54
34.10
30.64
26.63
22.53
18.76
15.62
13.31
11.90
11.40
11.77
12.95
14.87
17.35
20.10
22.65
24.43
24.94
23.94
21.55
18.20
14.49
10.95
7.83
5.03
2.23
-0.94
-4.65
-8.80
-13.05
-16.98
-20.29
-22.88
-24.94
-26.82
-28.94
-31.70
-35.29
-39.61
-44.16
-48.04
-50.09
-49.20
-44.68
-36.55
-25.56
-13.01
-0.35
11.23
21.00
28.68
34.29
37.92
39.64
39.54
37.75
34.56
30.40
25.71
20.95
16.46
12.56
9.50
7.52
6.79
7.34
9.02
11.42
14.00
16.15
17.36
17.34
16.12
14.00
11.38
8.64
5.98
3.37
0.62
-2.49
-6.10
-10.19
-14.58
-18.96
-23.00
-26.44
-29.22
-31.46
-33.54
-35.95
-39.07
-42.97
-47.24
-50.96
-52.96
-52.11
-47.72
-39.83
-29.13
-16.85
-4.37
7.15
16.87
24.41
29.71
32.93
34.26
33.92
32.15
29.15
25.24
20.76
16.13
11.77
8.09
5.41
3.93
3.74
4.75
6.72
9.23
11.79
13.90
15.19
15.51
14.93
13.66
11.88
9.67
6.94
3.60
-0.40
-4.96
-9.78
-14.51
-18.82
-22.51
-25.61
-28.33
-31.08
-34.36
-38.57
-43.77
-49.49
-54.63
-57.74
-57.40
-52.80
-44.03
-32.11
-18.62
-5.17
7.02
17.32
25.56
31.82
36.19
38.70
39.39
38.34
35.78
32.06
27.61
22.89
18.40
14.60
11.84
10.35
10.13
11.07
12.89
15.23
17.66
19.73
21.02
21.26
20.39
18.63
16.31
13.77
11.16
8.39
5.21
1.40
-3.10
-8.06
-13.09
-17.76
-21.80
-25.14
-27.96
-30.59
-33.41
-36.79
-40.92
-45.69
-50.57
-54.55
-56.36
-54.80
-49.20
-39.71
-27.31
-13.50
0.16
12.46
22.71
30.68
36.37
39.88
41.30
40.84
38.80
35.65
31.80
27.64
23.43
19.39
15.81
13.05
11.49
11.39
12.70
15.14
18.15
21.12
23.46
24.72
24.69
23.37
20.97
17.87
14.46
11.05
7.73
4.40
0.84
-3.18
-7.72
-12.67
-17.73
-22.58
-26.93
-30.66
-33.86
-36.80
-39.91
-43.62
-48.13
-53.26
-58.31
-62.10
-63.36
-61.07
-54.91
-45.42
-33.83
-21.64
-10.19
-0.43
7.22
12.63
15.75
16.58
15.17
11.75
6.81
1.04
-4.83
-10.20
-14.64
-17.94
-19.99
-20.81
-20.41
-18.88
-16.45
-13.44
-10.34
-7.65
-5.84
-5.11
-5.30
-5.88
-6.11
-5.28
-2.99
0.67
5.32
10.41
15.53
20.39
24.73
28.16
30.15
30.26
28.34
24.71
19.98
14.76
9.40
3.95
-1.43
-6.17
-9.15
-9.06
-5.01
2.98
13.85
25.94
37.58
47.70
55.91
62.27
66.99
70.11
71.50
71.09
68.95
65.43
61.03
56.31
51.81
47.93
44.99
43.17
42.55
43.08
44.56
46.67
49.00
51.10
52.49
52.75
51.67
49.22
45.66
41.37
36.81
32.32
28.02
23.80
19.37
14.42
8.77
2.52
-3.94
-10.06
-15.36
-19.71
-23.49
-27.52
-32.72
-39.70
-48.32
-57.55
-65.72
-71.07
-72.31
-69.04
-61.81
-51.85
-40.66
-29.61
-19.76
-11.68
-5.43
-0.55
3.82
8.64
14.64
22.00
30.22
38.33
45.20
49.95
52.14
51.84
49.42
45.46
40.57
35.39
30.58
26.83
24.71
24.55
26.27
29.33
32.70
35.12
35.34
32.47
26.12
16.48
4.13
-10.10
-25.35
-40.79
-55.63
-69.19
-80.93
-90.62
-98.43
-104.93
-110.96
-117.24
-123.96
-130.49
-135.34
-136.58
-132.45
-122.05
-105.74
-85.06
-62.33
-39.93
-19.84
-3.26
9.36
18.12
23.54
26.39
27.70
28.65
30.38
33.71
38.86
45.36
52.12
57.81
61.31
62.06
60.21
56.46
51.78
46.97
42.45
38.15
33.75
28.89
23.45
17.59
11.70
6.23
1.48
-2.48
-5.83
-8.83
-11.74
-14.70
-17.71
-20.72
-23.65
-26.53
-29.46
-32.69
-36.47
-40.97
-46.06
-51.18
-55.31
-57.19
-55.66
-50.06
-40.56
-28.12
-14.24
-0.51
11.75
21.69
28.97
33.57
35.71
35.68
33.84
30.62
26.48
21.88
17.24
12.88
9.08
6.06
3.99
3.01
3.14
4.31
6.30
8.73
11.15
13.06
14.03
13.77
12.24
9.69
6.53
3.25
0.16
-2.66
-5.42
-8.42
-11.93
-15.99
-20.42
-24.88
-29.01
-32.61
-35.67
-38.40
-41.12
-44.24
-48.05
-52.61
-57.51
-61.86
-64.42
-63.92
-59.56
-51.33
-40.05
-27.17
-14.25
-2.57
7.17
14.77
20.32
23.96
25.75
25.69
23.87
20.51
16.00
10.85
5.58
0.61
-3.69
-7.09
-9.41
-10.53
-10.41
-9.11
-6.79
-3.73
-0.39
2.73
5.10
6.31
6.19
4.83
2.49
-0.55
-4.08
-8.02
-12.37
-17.05
-21.88
-26.58
-30.87
-34.70
-38.21
-41.76
-45.62
-49.75
-53.59
-56.16
-56.27
-52.94
-45.72
-34.92
-21.49
-6.79
7.79
21.07
32.25
40.88
46.78
49.96
50.58
48.91
45.37
40.48
34.83
28.96
23.37
18.46
14.57
11.93
10.69
10.92
12.58
15.48
19.25
23.38
27.23
30.18
31.77
31.71
30.01
26.84
22.52
17.43
11.96
6.45
1.21
-3.56
-7.79
-11.60
-15.26
-19.18
-23.81
-29.48
-36.25
-43.66
-50.67
-55.81
-57.51
-54.60
-46.75
-34.62
-19.67
-3.73
11.55
24.98
35.94
44.23
49.84
52.89
53.61
52.34
49.56
45.79
41.52
37.15
33.04
29.52
26.93
25.54
25.45
26.59
28.65
31.21
33.75
35.81
37.01
37.09
36.01
33.90
31.05
27.78
24.29
20.57
16.45
11.75
6.45
0.76
-4.92
-10.12
-14.51
-18.00
-20.76
-23.22
-25.94
-29.44
-34.02
-39.50
-45.08
-49.42
-50.90
-48.17
-40.65
-28.82
-14.09
1.63
16.53
29.36
39.55
47.12
52.31
55.36
56.43
55.65
53.29
49.76
45.66
41.59
38.06
35.39
33.72
33.06
33.40
34.69
36.86
39.81
43.29
46.89
50.02
52.05
52.51
51.21
48.41
44.64
40.56
36.69
33.31
30.42
27.82
25.23
22.41
19.20
15.56
11.59
7.49
3.49
-0.20
-3.53
-6.56
-9.46
-12.48
-15.75
-19.25
-22.67
-25.39
-26.62
-25.59
-21.88
-15.67
-7.72
0.83
8.79
15.27
19.85
22.45
23.19
22.22
19.70
15.80
10.81
5.12
-0.89
-6.89
-12.64
-17.95
-22.58
-26.18
-28.38
-28.86
-27.55
-24.67
-20.75
-16.52
-12.71
-9.93
-8.50
-8.45
-9.57
-11.49
-13.78
-16.07
-18.16
-20.02
-21.86
-23.93
-26.47
-29.52
-32.91
-36.26
-39.22
-41.56
-43.30
-44.69
-46.15
-48.09
-50.78
-54.19
-57.82
-60.74
-61.74
-59.70
-54.01
-44.84
-33.14
-20.31
-7.76
3.41
12.58
19.52
24.22
26.73
27.18
25.79
23.00
19.36
15.44
11.77
8.71
6.46
5.10
4.59
4.88
5.91
7.61
9.81
12.31
14.71
16.58
17.54
17.35
16.06
13.90
11.25
8.41
5.56
2.72
-0.28
-3.58
-7.33
-11.50
-15.98
-20.53
-24.84
-28.63
-31.70
-34.08
-36.05
-38.11
-40.81
-44.53
-49.24
-54.32
-58.63
-60.82
-59.69
-54.61
-45.77
-34.10
-21.01
-8.01
3.67
13.22
20.26
24.74
26.79
26.62
24.52
20.88
16.18
10.89
5.50
0.36
-4.25
-8.12
-11.12
-13.13
-14.12
-14.14
-13.33
-11.91
-10.14
-8.29
-6.65
-5.51
-5.10
-5.55
-6.83
-8.66
-10.61
-12.25
-13.30
-13.77
-13.91
-14.13
-14.79
-15.99
-17.51
-18.97
-19.96
-20.30
-20.10
-19.75
-19.80
-20.77
-23.02
-26.67
-31.48
-36.83
-41.71
-44.83
-44.92
-41.08
-33.10
-21.63
-8.00
6.14
19.34
30.58
39.38
45.71
49.73
51.68
51.82
50.42
47.86
44.58
41.05
37.76
35.07
33.19
32.19
31.97
32.38
33.32
34.75
36.67
39.03
41.54
43.78
45.20
45.39
44.20
41.80
38.57
34.90
31.04
27.07
22.93
18.53
13.88
9.04
4.17
-0.55
-4.92
-8.82
-12.16
-14.98
-17.43
-19.84
-22.59
-26.01
-30.16
-34.66
-38.64
-40.94
-40.46
-36.57
-29.31
-19.44
-8.07
3.56
14.41
23.76
31.19
36.50
39.62
40.62
39.69
37.23
33.74
29.72
25.59
21.70
18.31
15.63
13.77
12.73
12.54
13.16
14.37
15.84
17.25
18.30
18.77
18.51
17.43
15.97
14.46
12.93
11.15
8.91
6.05
2.69
-1.04
-5.01
-8.15
-9.74
-9.78
-8.90
-7.78
-7.15
-7.26
-8.34
-10.40
-11.61
-10.26
-5.38
3.21
15.40
30.71
48.62
67.77
86.01
102.92
117.81
129.50
136.87
139.86
139.25
136.79
133.41
118.21
87.11
45.05
2.43
-32.76
-56.16
-71.07
-79.84
-84.17
-86.01
-84.03
-77.52
-67.39
-56.17
-46.91
-42.45
-43.90
-51.12
-63.24
-76.75
-88.13
-95.62
-99.66
-101.79
-103.57
-105.19
-101.73
-90.97
-74.20
-56.39
-43.00
-36.81
-37.06
-40.54
-42.99
-41.31
-35.02
-26.12
-15.24
-3.52
7.51
16.35
21.98
24.47
24.69
23.43
21.83
21.27
22.67
26.40
32.30
39.82
48.17
56.16
62.00
64.08
61.77
55.29
45.70
34.44
22.76
11.43
0.69
-9.75
-20.05
-29.89
-38.70
-45.83
-50.94
-54.14
-56.10
-57.78
-60.25
-64.17
-69.53
-75.74
-81.74
-86.35
-88.60
-87.99
-84.70
-79.52
-73.61
-68.01
-63.30
-59.32
-55.34
-50.29
-43.36
-34.18
-23.00
-10.56
2.20
14.34
25.12
34.12
41.21
46.51
50.23
52.50
53.33
52.68
50.57
47.29
43.29
39.09
35.00
31.06
27.17
23.36
19.95
17.58
16.86
18.04
20.82
24.39
27.78
30.22
31.46
31.72
31.48
31.22
31.16
31.20
31.00
30.17
28.44
25.81
22.60
19.42
17.08
16.48
18.32
22.98
30.35
39.90
50.84
62.27
73.32
83.26
91.53
97.73
101.58
102.96
101.92
98.76
93.86
87.65
80.46
72.59
64.24
55.53
46.50
37.20
27.65
17.91
8.01
-2.00
-11.80
-21.12
-29.85
-38.20
-46.47
-54.88
-63.54
-72.31
-80.94
-88.56
-94.38
-98.11
-100.06
-100.89
-101.25
-101.65
-102.44
-103.76
-104.60
-103.62
-99.72
-92.37
-81.44
-67.05
-49.73
-30.38
-10.28
10.35
31.37
52.33
72.32
90.56
106.95
122.05
136.66
144.20
139.67
122.26
96.04
66.58
37.90
12.23
-9.05
-24.96
-35.19
-39.14
-37.24
-31.12
-23.25
-15.89
-10.30
-6.85
-5.41
-5.90
-7.57
-9.76
-12.10
-14.50
-16.78
-18.38
-19.13
-19.03
-18.54
-17.85
-17.24
-17.00
-17.35
-18.21
-19.10
-19.34
-18.26
-15.56
-11.12
-5.41
0.74
6.48
11.11
14.30
16.02
16.48
15.89
14.59
12.61
9.98
7.05
4.16
1.43
-1.22
-3.93
-6.90
-9.96
-13.10
-16.05
-18.27
-19.29
-18.88
-17.17
-14.52
-11.77
-8.14
-4.37
-2.12
-2.54
-5.24
-8.57
-10.61
-10.17
-8.63
-6.74
-5.90
-7.19
-10.90
-16.63
-23.77
-31.97
-39.81
-46.80
-52.72
-57.94
-62.72
-66.86
-69.74
-70.68
-69.09
-64.66
-57.58
-47.95
-36.14
-22.45
-7.20
9.06
25.42
40.72
53.98
64.44
72.06
77.11
80.05
81.31
81.13
79.61
76.90
73.44
69.84
66.92
65.25
64.97
65.75
66.90
67.66
67.48
66.16
63.75
60.43
56.28
51.24
45.12
37.84
29.51
20.46
11.13
1.94
-6.85
-15.08
-22.73
-29.83
-36.41
-42.49
-48.13
-53.42
-58.46
-63.26
-67.65
-71.27
-73.58
-74.02
-72.20
-68.01
-61.74
-54.00
-45.60
-37.35
-29.85
-23.50
-18.49
-14.89
-12.75
-12.09
-12.86
-14.80
-17.43
-20.12
-22.21
-23.21
-22.87
-21.19
-18.33
-14.52
-10.00
-5.01
0.13
5.07
9.44
12.97
15.58
17.39
18.65
19.59
20.33
20.78
20.72
19.94
18.30
15.87
12.84
9.51
6.20
3.16
0.50
-1.80
-3.86
-5.93
-8.24
-10.92
-13.84
-16.52
-18.26
-18.33
-16.17
-11.58
-4.83
3.39
12.12
20.41
27.48
32.82
36.10
37.30
36.58
34.19
30.39
25.40
19.42
12.72
5.64
-1.65
-8.80
-15.25
-20.51
-24.34
-26.83
-28.35
-29.45
-30.63
-32.58
-35.38
-38.64
-41.70
-44.14
-45.84
-46.96
-47.75
-48.39
-49.36
-50.43
-50.79
-49.35
-45.29
-38.26
-28.50
-16.68
-1.56
15.25
30.40
40.83
45.71
46.31
44.67
42.61
41.50
42.18
44.43
47.89
52.04
56.16
59.49
61.50
61.93
60.82
58.86
55.16
49.42
42.00
33.93
26.52
21.01
17.72
16.24
15.50
14.02
11.06
6.80
2.06
-2.09
-4.91
-6.81
-8.92
-11.88
-16.57
-23.39
-32.32
-43.03
-54.88
-64.05
-67.29
-63.13
-53.14
-40.69
-29.14
-20.93
-17.19
-17.57
-20.48
-25.10
-29.78
-33.59
-36.14
-37.35
-37.42
-36.58
-35.05
-33.05
-31.29
-29.21
-26.86
-24.01
-20.02
-14.29
-6.57
2.85
13.21
23.27
32.09
38.90
43.63
46.68
48.51
49.47
49.67
49.08
47.56
45.15
41.95
38.37
34.96
32.19
30.29
29.23
28.73
28.37
27.81
26.71
24.95
22.52
19.44
15.71
11.33
6.34
0.85
-4.89
-10.58
-15.93
-20.69
-24.77
-28.19
-31.09
-33.62
-35.96
-38.27
-40.69
-43.23
-45.68
-47.52
-48.03
-46.47
-42.34
-35.61
-26.78
-16.72
-6.41
3.32
11.90
19.03
24.54
28.33
30.34
30.61
29.30
26.71
23.30
19.59
16.04
13.03
10.77
9.36
8.75
8.88
9.63
10.83
12.29
13.75
14.91
15.48
15.25
14.14
12.19
9.53
6.36
2.83
-0.88
-4.64
-8.32
-11.80
-15.04
-18.06
-21.02
-24.16
-27.73
-31.83
-36.26
-40.43
-43.44
-44.31
-42.30
-37.12
-29.12
-19.10
-8.19
2.54
12.22
20.33
26.64
31.17
33.99
35.22
35.00
33.46
30.85
27.51
23.87
20.44
17.65
15.79
14.93
14.98
15.69
16.78
17.97
19.01
19.77
20.11
19.97
19.33
18.15
16.39
14.03
11.06
7.53
3.57
-0.61
-4.79
-8.78
-12.50
-15.97
-19.33
-22.74
-26.38
-30.32
-34.43
-38.28
-41.14
-42.11
-40.36
-35.45
-27.58
-17.55
-6.62
3.94
13.19
20.68
26.40
30.55
33.33
34.77
34.82
33.45
30.83
27.34
23.56
20.08
17.36
15.63
14.86
14.86
15.36
16.15
17.06
17.96
18.71
19.11
18.92
17.92
16.00
13.16
9.56
5.42
0.99
-3.50
-7.85
-11.95
-15.78
-19.48
-23.25
-27.32
-31.85
-36.76
-41.69
-46.02
-48.92
-49.59
-47.46
-42.40
-34.81
-25.53
-15.62
-6.05
2.46
9.56
15.14
19.17
21.58
22.30
21.33
18.89
15.40
11.44
7.58
4.28
1.84
0.40
0.00
0.59
1.98
3.88
5.92
7.76
9.13
9.89
10.02
9.53
8.44
6.74
4.38
1.44
-1.96
-5.54
-9.02
-12.18
-14.93
-17.40
-19.85
-22.59
-25.85
-29.66
-33.83
-37.93
-41.35
-43.35
-43.25
-40.57
-35.18
-27.39
-17.93
-7.74
2.27
11.35
18.98
24.88
28.92
31.07
31.46
30.34
28.11
25.28
22.29
19.54
17.27
15.65
14.78
14.67
15.28
16.47
18.04
19.70
21.18
22.27
22.83
22.81
22.18
20.94
19.08
16.59
13.51
9.93
6.02
1.99
-1.93
-5.54
-8.72
-11.40
-13.59
-15.38
-17.01
-18.76
-21.00
-23.92
-27.43
-31.02
-33.76
-34.63
-32.79
-27.94
-20.45
-11.19
-1.30
8.20
16.55
23.34
28.38
31.64
33.13
32.98
31.40
28.72
25.35
21.72
18.20
15.12
12.66
10.98
10.10
9.99
10.56
11.61
12.89
14.11
15.01
15.35
15.03
14.06
12.57
10.71
8.62
6.36
3.91
1.20
-1.82
-5.11
-8.55
-11.96
-15.14
-17.94
-20.30
-22.28
-24.02
-25.75
-27.73
-30.05
-32.61
-34.93
-36.30
-35.94
-33.27
-28.14
-20.92
-12.35
-3.31
5.36
13.06
19.37
24.06
26.99
28.15
27.64
25.72
22.77
19.25
15.61
12.24
9.46
7.50
6.47
6.36
7.03
8.28
9.84
11.43
12.82
13.84
14.39
14.44
13.99
13.05
11.61
9.64
7.13
4.10
0.71
-2.83
-6.25
-9.34
-12.03
-14.40
-16.69
-19.16
-22.01
-25.24
-28.65
-31.79
-34.06
-34.84
-33.63
-30.15
-24.47
-17.01
-8.52
0.10
7.99
14.52
19.33
22.38
23.79
23.75
22.44
20.00
16.65
12.71
8.62
4.87
1.87
-0.11
-1.05
-1.14
-0.64
0.14
1.00
1.79
2.42
2.84
2.91
2.45
1.33
-0.54
-3.06
-6.02
-9.19
-12.34
-15.32
-18.12
-20.79
-23.48
-26.34
-29.52
-33.00
-36.58
-39.78
-41.90
-42.20
-40.15
-35.57
-28.77
-20.41
-11.37
-2.47
5.66
12.58
18.05
21.92
24.10
24.55
23.37
20.83
17.36
13.48
9.67
6.30
3.63
1.73
0.59
0.17
0.39
1.20
2.54
4.25
6.07
7.58
8.35
8.02
6.47
3.82
0.44
-3.28
-6.99
-10.48
-13.71
-16.77
-19.80
-23.00
-26.55
-30.55
-34.87
-39.04
-42.29
-43.69
-42.45
-38.18
-31.11
-21.97
-11.81
-1.69
7.58
15.52
21.94
26.74
29.85
31.15
30.57
28.27
24.65
20.35
16.12
12.58
10.08
8.65
8.09
8.12
8.49
9.09
9.91
10.94
12.08
13.09
13.60
13.27
11.87
9.44
6.29
2.87
-0.38
-3.25
-5.82
-8.40
-11.38
-15.04
-19.41
-24.20
-28.87
-32.66
-34.75
-34.47
-31.42
-25.61
-17.51
-7.94
2.16
11.88
20.51
27.56
32.77
36.05
37.43
37.08
35.25
32.28
28.56
24.54
20.63
17.22
14.54
12.68
11.60
11.18
11.28
11.76
12.52
13.37
14.08
14.31
13.75
12.16
9.52
6.04
2.08
-1.93
-5.68
-9.11
-12.44
-16.03
-20.24
-25.20
-30.70
-36.14
-40.61
-43.14
-42.88
-39.38
-32.73
-23.54
-12.82
-1.69
8.79
17.86
25.05
30.15
33.12
34.00
32.95
30.28
26.48
22.15
17.91
14.30
11.63
9.99
9.22
9.09
9.36
9.85
10.48
11.20
11.91
12.40
12.38
11.56
9.78
7.09
3.74
0.10
-3.48
-6.76
-9.67
-12.36
-15.07
-18.06
-21.54
-25.55
-29.89
-34.08
-37.39
-38.94
-37.97
-34.02
-27.14
-17.93
-7.35
3.49
13.60
22.31
29.22
34.16
37.06
37.93
36.88
34.19
30.35
26.01
21.81
18.25
15.63
13.96
13.13
12.91
13.15
13.72
14.55
15.56
16.60
17.45
17.83
17.50
16.28
14.15
11.27
7.91
4.40
1.04
-2.03
-4.83
-7.51
-10.26
-13.20
-16.29
-19.38
-22.26
-24.78
-26.87
-28.59
-30.03
-31.31
-32.65
-34.31
-36.57
-39.55
-42.97
-46.08
-47.77
-46.94
-42.92
-35.71
-25.98
-14.84
-3.44
7.26
16.63
24.30
30.10
33.91
35.76
35.80
34.31
31.73
28.52
25.14
22.02
19.47
17.74
16.93
17.03
17.94
19.50
21.47
23.57
25.45
26.73
27.09
26.37
24.67
22.30
19.66
17.10
14.72
12.39
9.84
6.84
3.32
-0.55
-4.43
-8.00
-11.05
-13.56
-15.67
-17.64
-19.77
-22.34
-25.54
-29.32
-33.37
-37.01
-39.38
-39.58
-37.05
-31.70
-23.99
-14.82
-5.22
3.81
11.52
17.45
21.44
23.54
23.94
22.94
20.86
18.01
14.70
11.22
7.88
5.00
2.89
1.79
1.80
2.86
4.72
7.06
9.46
11.51
12.89
13.36
12.84
11.46
9.45
7.12
4.72
2.34
-0.08
-2.77
-5.93
-9.62
-13.64
-17.63
-21.19
-24.05
-26.23
-28.05
-29.96
-32.36
-35.31
-38.44
-40.96
-41.85
-40.23
-35.64
-28.20
-18.60
-7.96
2.54
11.86
19.34
24.69
27.98
29.48
29.49
28.31
26.20
23.42
20.32
17.32
14.81
13.11
12.34
12.43
13.19
14.42
15.98
17.74
19.51
21.03
21.91
21.82
20.58
18.23
15.06
11.48
7.93
4.66
1.72
-0.99
-3.71
-6.59
-9.70
-12.95
-16.17
-19.17
-21.81
-24.02
-25.82
-27.35
-28.79
-30.41
-32.44
-34.94
-37.62
-39.87
-40.78
-39.46
-35.38
-28.58
-19.67
-9.71
0.17
9.03
16.27
21.68
25.27
27.16
27.51
26.49
24.29
21.23
17.71
14.19
11.13
8.88
7.61
7.32
7.83
8.89
10.24
11.69
13.14
14.51
15.73
16.64
17.03
16.75
15.69
13.93
11.64
9.03
6.25
3.37
0.33
-2.92
-6.39
-9.98
-13.45
-16.51
-18.92
-20.58
-21.57
-22.17
-22.76
-23.71
-25.33
-27.76
-30.95
-34.63
-38.26
-41.07
-42.20
-40.90
-36.78
-29.98
-21.16
-11.35
-1.65
7.06
14.24
19.71
23.51
25.77
26.60
26.06
24.24
21.29
17.50
13.32
9.28
5.91
3.64
2.68
3.05
4.54
6.80
9.48
12.19
14.62
16.55
17.79
18.27
17.92
16.78
14.96
12.63
9.99
7.23
4.49
1.84
-0.74
-3.29
-5.87
-8.52
-11.22
-13.92
-16.52
-18.90
-20.94
-22.57
-23.81
-24.78
-25.69
-26.82
-28.46
-30.79
-33.78
-37.07
-40.00
-41.66
-41.19
-38.05
-32.16
-23.93
-14.19
-3.86
6.17
15.17
22.63
28.15
31.56
32.82
32.13
29.88
26.60
22.83
19.08
15.74
13.09
11.31
10.46
10.47
11.17
12.39
13.93
15.69
17.55
19.38
20.91
21.82
21.81
20.75
18.75
16.13
13.29
10.52
7.91
5.31
2.44
-0.90
-4.72
-8.81
-12.79
-16.27
-19.03
-21.06
-22.58
-23.95
-25.59
-27.81
-30.83
-34.55
-38.60
-42.23
-44.52
-44.50
-41.55
-35.61
-27.21
-17.32
-7.04
2.68
11.25
18.39
23.99
27.95
30.17
30.61
29.35
26.67
23.03
18.96
14.99
11.55
8.97
7.48
7.19
8.03
9.79
12.11
14.56
16.77
18.43
19.39
19.56
18.91
17.52
15.49
12.99
10.19
7.27
4.41
1.74
-0.65
-2.72
-4.51
-6.13
-7.73
-9.47
-11.43
-13.55
-15.70
-17.68
-19.35
-20.61
-21.50
-22.18
-22.92
-24.09
-26.05
-29.04
-32.96
-37.28
-41.07
-43.21
-42.65
-38.82
-31.75
-22.14
-11.10
0.18
10.64
19.60
26.73
31.94
35.27
36.81
36.68
35.08
32.29
28.72
24.88
21.24
18.22
16.08
14.89
14.64
15.21
16.43
18.09
19.94
21.69
23.01
23.67
23.51
22.53
20.86
18.74
16.43
14.18
12.16
10.46
9.05
7.86
6.75
5.60
4.37
3.08
1.84
0.76
-0.12
-0.92
-1.90
-3.32
-5.38
-8.13
-11.40
-14.94
-18.48
-21.87
-25.06
-28.17
-31.45
-35.12
-39.32
-43.90
-48.30
-51.58
-52.63
-50.47
-44.63
-35.33
-23.46
-10.30
2.80
14.75
24.83
32.67
38.12
41.22
42.10
41.03
38.44
34.91
31.06
27.50
24.67
22.83
22.04
22.17
22.99
24.22
25.61
26.99
28.23
29.20
29.76
29.70
28.85
27.18
24.78
21.92
18.85
15.73
12.56
9.24
5.70
2.01
-1.61
-4.86
-7.50
-9.48
-10.93
-12.07
-13.16
-14.33
-15.66
-17.09
-18.53
-19.89
-21.14
-22.35
-23.73
-25.59
-28.18
-31.57
-35.45
-39.17
-41.79
-42.35
-40.19
-35.11
-27.49
-18.17
-8.17
1.54
10.23
17.47
23.09
27.08
29.48
30.37
29.78
27.83
24.75
20.91
16.85
13.17
10.35
8.64
8.01
8.27
9.13
10.39
11.89
13.49
14.96
16.00
16.28
15.59
13.95
11.58
8.79
5.88
2.96
0.02
-3.02
-6.26
-9.65
-13.06
-16.26
-19.09
-21.46
-23.39
-25.05
-26.72
-28.66
-31.09
-34.02
-37.19
-40.03
-41.74
-41.53
-38.86
-33.61
-26.20
-17.45
-8.34
0.22
7.59
13.47
17.79
20.64
22.09
22.18
20.93
18.47
15.09
11.22
7.41
4.12
1.71
0.31
-0.12
0.27
1.27
2.65
4.17
5.59
6.69
7.25
7.09
6.10
4.27
1.61
-1.72
-5.52
-9.50
-13.39
-16.98
-20.21
-23.13
-25.88
-28.61
-31.45
-34.46
-37.65
-40.98
-44.27
-47.08
-48.75
-48.43
-45.40
-39.38
-30.68
-20.23
-9.23
1.19
10.30
17.79
23.63
27.88
30.50
31.41
30.64
28.40
25.11
21.36
17.71
14.60
12.36
11.21
11.23
12.34
14.30
16.65
18.92
20.66
21.59
21.63
20.84
19.40
17.44
15.10
12.43
9.46
6.17
2.59
-1.24
-5.20
-9.09
-12.70
-15.87
-18.58
-20.93
-23.23
-25.85
-29.07
-32.93
-37.06
-40.64
-42.59
-41.86
-37.82
-30.44
-20.39
-8.76
3.16
14.24
23.69
31.06
36.24
39.30
40.47
40.04
38.35
35.78
32.77
29.76
27.15
25.21
24.08
23.72
24.05
24.95
26.32
28.05
29.95
31.75
33.15
33.86
33.64
32.42
30.22
27.19
23.61
19.77
15.92
12.24
8.72
5.23
1.64
-2.10
-5.91
-9.55
-12.77
-15.38
-17.35
-18.77
-19.90
-21.10
-22.81
-25.42
-29.15
-33.85
-38.92
-43.31
-45.78
-45.21
-40.99
-33.28
-22.93
-11.22
0.52
11.22
20.28
27.45
32.73
36.14
37.71
37.48
35.61
32.39
28.32
23.97
19.94
16.72
14.60
13.70
13.91
14.98
16.59
18.42
20.15
21.49
22.21
22.09
21.03
19.07
16.40
13.30
10.08
6.95
3.99
1.10
-1.91
-5.20
-8.81
-12.62
-16.40
-19.85
-22.78
-25.12
-26.93
-28.43
-29.92
-31.75
-34.19
-37.34
-40.96
-44.39
-46.63
-46.60
-43.49
-37.13
-28.04
-17.28
-6.13
4.30
13.29
20.48
25.79
29.21
30.73
30.37
28.30
24.87
20.63
16.19
12.14
8.88
6.64
5.43
5.19
5.75
6.92
8.44
10.00
11.26
11.90
11.74
10.74
8.99
6.64
3.86
0.72
-2.72
-6.43
-10.39
-14.52
-18.67
-22.70
-26.44
-29.76
-32.61
-35.07
-37.36
-39.77
-42.53
-45.70
-48.96
-51.63
-52.74
-51.36
-46.86
-39.22
-29.01
-17.27
-5.17
6.26
16.34
24.69
31.14
35.56
37.85
38.04
36.33
33.14
29.10
24.85
21.00
18.00
16.08
15.30
15.54
16.56
18.10
19.93
21.85
23.61
24.93
25.48
25.00
23.39
20.83
17.68
14.34
11.06
7.85
4.54
0.96
-2.93
-6.99
-10.93
-14.49
-17.56
-20.16
-22.50
-24.79
-27.24
-30.03
-33.27
-36.97
-40.89
-44.41
-46.59
-46.30
-42.69
-35.51
-25.30
-13.28
-0.90
10.59
20.43
28.38
34.46
38.72
41.09
41.50
40.01
36.94
32.88
28.54
24.56
21.40
19.26
18.14
17.92
18.39
19.36
20.68
22.23
23.88
25.43
26.57
26.93
26.18
24.17
21.05
17.21
13.15
9.30
5.87
2.80
-0.16
-3.28
-6.69
-10.32
-13.92
-17.17
-19.86
-21.91
-23.48
-24.83
-26.30
-28.22
-30.85
-34.28
-38.40
-42.76
-46.56
-48.76
-48.31
-44.48
-37.15
-26.85
-14.65
-1.87
10.27
20.87
29.37
35.58
39.51
41.31
41.16
39.33
36.14
31.99
27.39
22.95
19.27
16.81
15.74
15.88
16.83
18.09
19.29
20.28
21.10
21.81
22.32
22.38
21.65
19.87
17.05
13.48
9.62
5.89
2.52
-0.54
-3.56
-6.81
-10.44
-14.39
-18.43
-22.24
-25.54
-28.20
-30.25
-31.91
-33.53
-35.47
-38.04
-41.27
-44.85
-48.05
-49.88
-49.32
-45.66
-38.76
-29.11
-17.77
-6.00
5.01
14.43
21.82
27.07
30.28
31.59
31.20
29.34
26.31
22.52
18.39
14.36
10.77
7.89
5.89
4.88
4.84
5.68
7.16
8.96
10.67
11.97
12.61
12.50
11.70
10.29
8.37
5.97
3.09
-0.26
-4.03
-8.09
-12.21
-16.22
-19.97
-23.35
-26.32
-28.87
-31.11
-33.26
-35.62
-38.44
-41.67
-44.87
-47.17
-47.50
-44.95
-39.07
-30.07
-18.80
-6.49
5.61
16.47
25.43
32.22
36.81
39.26
39.71
38.36
35.51
31.62
27.23
22.89
19.00
15.78
13.28
11.51
10.48
10.27
10.92
12.38
14.41
16.56
18.32
19.25
19.11
17.90
15.83
13.19
10.25
7.15
3.90
0.42
-3.34
-7.38
-11.54
-15.61
-19.30
-22.37
-24.75
-26.54
-28.04
-29.67
-31.89
-34.94
-38.74
-42.73
-45.93
-47.17
-45.44
-40.23
-31.74
-20.80
-8.64
3.50
14.59
23.99
31.34
36.55
39.60
40.59
39.70
37.23
33.54
29.08
24.32
19.73
15.73
12.60
10.47
9.33
9.08
9.61
10.83
12.64
14.82
17.02
18.78
19.64
19.33
17.82
15.39
12.43
9.31
6.22
3.09
-0.23
-3.90
-7.89
-11.97
-15.80
-19.03
-21.51
-23.30
-24.68
-26.03
-27.78
-30.27
-33.64
-37.67
-41.74
-44.82
-45.78
-43.63
-37.98
-29.14
-18.07
-6.03
5.76
16.42
25.41
32.46
37.41
40.18
40.81
39.50
36.65
32.74
28.27
23.60
18.98
14.63
10.85
7.94
6.20
5.77
6.59
8.35
10.59
12.80
14.55
15.55
15.69
14.98
13.56
11.60
9.24
6.63
3.83
0.84
-2.40
-5.95
-9.78
-13.77
-17.72
-21.40
-24.64
-27.45
-30.06
-32.82
-36.08
-39.93
-44.11
-47.86
-50.15
-49.91
-46.42
-39.58
-29.95
-18.66
-7.01
3.82
13.03
20.25
25.46
28.77
30.35
30.34
28.83
25.97
21.94
17.02
11.62
6.31
1.67
-1.77
-3.73
-4.24
-3.66
-2.49
-1.18
-0.06
0.78
1.38
1.83
2.13
2.23
2.05
1.51
0.60
-0.65
-2.31
-4.54
-7.55
-11.46
-16.22
-21.54
-27.01
-32.25
-37.04
-41.28
-44.79
-47.14
-47.61
-45.36
-39.91
-31.38
-20.61
-8.91
2.42
12.41
20.64
27.04
31.67
34.58
35.71
35.10
32.87
29.36
24.95
20.06
15.07
10.40
6.50
3.80
2.63
3.02
4.68
7.06
9.52
11.53
12.80
13.31
13.18
12.58
11.57
10.12
8.14
5.63
2.69
-0.48
-3.68
-6.79
-9.85
-12.95
-16.20
-19.64
-23.30
-27.17
-31.25
-35.36
-39.08
-41.61
-42.02
-39.49
-33.68
-24.91
-14.04
-2.27
9.30
19.76
28.51
35.14
39.36
40.99
40.00
36.57
31.15
24.48
17.56
11.53
7.39
5.75
6.58
9.19
12.57
15.72
18.11
19.72
20.89
22.02
23.26
24.51
25.56
26.29
26.73
27.01
27.13
26.88
25.94
24.03
21.15
17.59
13.82
10.21
6.87
3.62
0.04
-4.27
-9.56
-15.78
-22.52
-29.10
-34.61
-38.15
-39.00
-36.86
-31.94
-24.97
-17.07
-9.41
-3.08
1.22
3.21
2.96
0.85
-2.68
-7.20
-12.43
-18.16
-24.27
-30.58
-36.83
-42.66
-47.72
-51.79
-54.82
-56.98
-58.55
-59.85
-61.12
-62.50
-64.05
-65.74
-67.55
-69.31
-70.78
-71.56
-71.22
-69.42
-66.11
-61.50
-56.03
-50.10
-43.90
-37.29
-29.97
-21.64
-12.35
-2.55
6.97
15.39
22.22
27.56
32.08
36.76
42.48
49.68
58.18
67.29
76.06
83.56
89.13
92.42
93.36
92.02
88.52
82.96
75.47
66.36
56.09
45.38
34.97
25.49
17.31
10.55
5.17
1.17
-1.38
-2.39
-1.92
-0.29
1.92
4.03
5.54
6.21
6.19
5.80
5.46
5.47
5.96
6.90
8.07
9.09
9.45
8.62
6.21
2.22
-2.97
-8.61
-13.89
-18.12
-20.96
-22.25
-21.88
-19.66
-15.28
-8.59
0.21
10.43
21.05
30.99
39.51
46.28
51.35
54.91
57.03
57.64
56.54
53.62
49.01
43.13
36.67
30.43
25.16
21.38
19.26
18.69
19.28
20.53
21.85
22.65
22.26
20.12
15.95
9.95
2.97
-3.78
-9.23
-12.91
-15.29
-17.47
-20.70
-25.65
-32.12
-39.15
-45.56
-50.53
-53.89
-56.10
-57.93
-60.09
-63.02
-66.88
-71.53
-76.59
-81.37
-84.89
-86.05
-83.86
-77.75
-67.78
-54.62
-39.42
-23.54
-8.24
5.47
16.95
25.88
32.21
36.07
37.76
37.73
36.50
34.60
32.51
30.57
28.99
27.92
27.47
27.78
28.95
30.96
33.61
36.53
39.21
41.16
41.99
41.53
39.81
37.00
33.37
29.23
24.86
20.49
16.20
11.95
7.57
2.90
-2.15
-7.49
-12.81
-17.78
-22.10
-25.72
-28.85
-31.88
-35.22
-39.13
-43.58
-48.20
-52.30
-55.01
-55.57
-53.52
-48.89
-42.18
-34.30
-26.24
-18.82
-12.50
-7.30
-2.95
0.86
4.25
7.10
9.12
10.11
10.18
9.78
9.45
9.60
10.22
10.91
11.09
10.38
8.83
6.89
5.24
4.43
4.73
6.08
8.17
10.60
13.05
15.32
17.42
19.53
22.00
25.25
29.54
34.89
41.00
47.28
52.96
57.29
59.66
59.68
57.35
52.93
46.93
40.00
32.68
25.20
17.51
9.36
0.72
-7.85
-15.01
-18.89
-17.70
-10.41
2.74
20.07
38.86
55.94
68.41
74.39
73.33
66.20
55.14
42.98
32.40
25.33
22.52
23.73
28.02
34.31
41.52
48.56
54.21
57.16
56.28
51.15
42.35
31.30
19.77
9.14
-0.04
-8.13
-15.90
-24.01
-32.56
-41.06
-48.79
-55.17
-60.05
-63.71
-66.64
-69.22
-71.61
-73.84
-75.92
-78.08
-80.74
-84.21
-88.46
-92.83
-96.15
-97.08
-94.60
-88.45
-79.19
-67.95
-56.04
-44.53
-34.02
-24.72
-16.64
-9.77
-4.21
-0.12
2.29
2.90
1.66
-1.34
-5.81
-11.13
-16.42
-20.58
-22.56
-21.70
-17.92
-11.82
-4.49
2.78
8.87
13.03
14.97
14.88
13.27
10.81
8.15
5.74
3.75
2.06
0.32
-1.82
-4.55
-7.88
-11.60
-15.46
-19.23
-22.81
-26.16
-29.34
-32.41
-35.36
-37.95
-39.70
-39.83
-37.56
-32.32
-24.07
-13.43
-1.48
10.48
21.34
30.36
37.23
41.94
44.57
45.29
44.33
42.03
38.83
35.26
31.77
28.68
26.13
24.14
22.69
21.82
21.63
22.26
23.73
25.86
28.27
30.38
31.65
31.68
30.32
27.73
24.22
20.20
15.99
11.79
7.62
3.43
-0.88
-5.34
-9.88
-14.33
-18.45
-22.07
-25.10
-27.56
-29.68
-31.75
-34.12
-36.99
-40.27
-43.48
-45.78
-46.13
-43.68
-38.02
-29.46
-18.89
-7.47
3.68
13.79
22.43
29.40
34.55
37.70
38.67
37.51
34.55
30.41
25.88
21.62
18.11
15.54
13.94
13.25
13.43
14.42
16.11
18.30
20.70
22.92
24.60
25.44
25.27
24.06
21.94
19.11
15.85
12.40
8.94
5.57
2.31
-0.89
-4.14
-7.51
-10.98
-14.40
-17.54
-20.18
-22.19
-23.65
-24.81
-26.08
-27.90
-30.62
-34.31
-38.69
-42.97
-46.01
-46.57
-43.68
-37.05
-27.17
-15.26
-2.80
8.85
18.81
26.68
32.48
36.34
38.39
38.73
37.53
35.02
31.58
27.67
23.81
20.48
18.06
16.72
16.44
17.03
18.20
19.72
21.42
23.19
24.87
26.23
26.95
26.71
25.38
23.04
19.93
16.40
12.72
9.02
5.34
1.65
-2.06
-5.74
-9.35
-12.84
-16.18
-19.31
-22.16
-24.68
-26.84
-28.80
-30.87
-33.47
-36.90
-41.07
-45.35
-48.64
-49.69
-47.51
-41.79
-32.98
-22.14
-10.58
0.55
10.46
18.77
25.31
29.99
32.69
33.33
32.00
29.05
25.06
20.71
16.62
13.22
10.71
9.12
8.38
8.44
9.30
10.95
13.22
15.80
18.21
19.95
20.62
20.09
18.50
16.23
13.69
11.16
8.66
6.07
3.23
0.00
-3.58
-7.34
-10.89
-13.90
-16.19
-17.77
-18.77
-19.47
-20.23
-21.47
-23.51
-26.15
-28.91
-30.97
-31.34
-28.97
-23.14
-13.81
-1.63
12.16
26.56
40.59
53.40
64.33
73.03
79.37
83.25
84.58
83.24
79.70
74.34
67.49
59.47
50.96
42.82
35.82
30.45
23.45
13.75
2.40
-8.40
-17.24
-23.82
-28.54
-32.77
-37.34
-42.57
-47.88
-52.85
-56.45
-58.50
-59.18
-58.95
-58.37
-57.80
-57.52
-57.21
-56.64
-55.76
-54.86
-54.17
-53.85
-53.96
-54.55
-55.72
-57.36
-59.30
-61.24
-62.69
-62.79
-60.58
-55.35
-46.93
-35.83
-22.93
-9.40
3.70
15.53
25.59
33.63
39.48
43.02
44.21
43.24
40.52
36.66
32.31
28.17
24.76
22.41
21.25
21.16
21.93
23.31
25.07
26.96
28.81
30.39
31.46
31.79
31.19
29.60
27.10
23.96
20.48
16.99
13.67
10.55
7.49
4.27
0.72
-3.17
-7.26
-11.27
-14.88
-17.84
-20.08
-21.69
-23.01
-24.50
-26.67
-29.88
-34.14
-38.98
-43.44
-46.30
-46.44
-43.18
-36.48
-26.93
-15.58
-3.60
7.92
18.12
26.44
32.53
36.26
37.66
36.93
34.43
30.60
25.93
20.89
15.89
11.32
7.49
4.66
3.00
2.53
3.14
4.56
6.45
8.41
10.05
11.07
11.33
10.83
9.68
8.05
6.09
3.81
1.18
-1.92
-5.53
-9.59
-13.88
-18.11
-21.95
-25.21
-27.84
-30.02
-32.07
-34.38
-37.23
-40.61
-44.10
-46.84
-47.80
-46.02
-40.96
-32.72
-21.95
-9.74
2.71
14.33
24.34
32.28
37.99
41.53
43.08
42.85
41.08
38.01
33.91
29.14
24.17
19.48
15.55
12.73
11.21
11.02
12.04
14.00
16.53
19.10
21.18
22.33
22.29
21.09
18.97
16.31
13.45
10.55
7.60
4.42
0.87
-3.08
-7.29
-11.52
-15.52
-19.15
-22.44
-25.53
-28.66
-32.01
-35.74
-39.78
-43.79
-47.10
-48.77
-47.82
-43.58
-35.96
-25.51
-13.32
-0.69
11.25
21.70
30.23
36.66
40.96
43.12
43.20
41.42
38.13
33.82
29.00
24.17
19.72
15.98
13.18
11.50
11.04
11.76
13.44
15.76
18.25
20.47
22.02
22.67
22.33
21.05
18.98
16.33
13.28
9.96
6.45
2.76
-1.12
-5.14
-9.21
-13.12
-16.67
-19.73
-22.25
-24.36
-26.32
-28.48
-31.15
-34.47
-38.28
-42.00
-44.71
-45.31
-42.87
-36.95
-27.77
-16.21
-3.60
8.69
19.54
28.29
34.73
38.94
41.13
41.54
40.36
37.80
34.16
29.83
25.26
20.94
17.25
14.47
12.70
11.96
12.15
13.18
14.91
17.08
19.37
21.34
22.58
22.77
21.84
19.95
17.44
14.64
11.77
8.85
5.71
2.16
-1.88
-6.33
-10.92
-15.33
-19.25
-22.55
-25.24
-27.53
-29.77
-32.33
-35.54
-39.41
-43.60
-47.25
-49.25
-48.47
-44.24
-36.57
-26.23
-14.53
-2.88
7.58
16.18
22.71
27.25
29.96
30.99
30.43
28.43
25.21
21.10
16.51
11.84
7.52
3.91
1.33
-0.02
-0.11
0.86
2.53
4.43
6.12
7.35
8.03
8.20
7.91
7.15
5.80
3.72
0.86
-2.72
-6.79
-11.07
-15.30
-19.35
-23.16
-26.75
-30.20
-33.57
-36.97
-40.55
-44.37
-48.22
-51.56
-53.50
-53.03
-49.41
-42.48
-32.77
-21.36
-9.52
1.65
11.39
19.31
25.26
29.18
31.08
31.06
29.35
26.30
22.39
18.05
13.67
9.59
6.08
3.42
1.84
1.47
2.27
3.99
6.23
8.55
10.57
12.05
12.89
13.11
12.68
11.56
9.72
7.18
4.08
0.61
-3.02
-6.67
-10.29
-13.86
-17.28
-20.45
-23.24
-25.64
-27.87
-30.30
-33.34
-37.13
-41.35
-45.16
-47.37
-46.83
-42.81
-35.26
-24.86
-12.79
-0.39
11.20
21.18
29.18
35.08
38.89
40.70
40.63
38.88
35.76
31.68
27.13
22.61
18.53
15.23
12.91
11.69
11.57
12.46
14.17
16.41
18.74
20.73
21.95
22.15
21.26
19.43
16.98
14.25
11.50
8.79
5.96
2.75
-1.04
-5.40
-10.07
-14.57
-18.44
-21.43
-23.61
-25.36
-27.19
-29.57
-32.77
-36.72
-41.01
-44.93
-47.51
-47.74
-44.86
-38.58
-29.25
-17.82
-5.55
6.29
16.75
25.29
31.75
36.13
38.51
38.96
37.62
34.74
30.71
26.06
21.34
17.04
13.49
10.87
9.25
8.60
8.92
10.12
12.06
14.49
17.02
19.20
20.61
20.99
20.35
18.88
16.90
14.69
12.36
9.82
6.89
3.41
-0.59
-4.89
-9.12
-12.90
-16.03
-18.52
-20.62
-22.70
-25.17
-28.30
-32.15
-36.43
-40.50
-43.39
-44.10
-41.83
-36.29
-27.85
-17.43
-6.19
4.70
14.41
22.42
28.53
32.70
34.98
35.47
34.33
31.78
28.07
23.48
18.37
13.18
8.44
4.69
2.37
1.61
2.27
3.93
6.06
8.18
9.93
11.12
11.68
11.59
10.82
9.37
7.26
4.53
1.28
-2.39
-6.38
-10.56
-14.76
-18.81
-22.54
-25.85
-28.72
-31.31
-33.87
-36.70
-39.99
-43.63
-47.10
-49.57
-50.02
-47.59
-41.96
-33.43
-22.89
-11.55
-0.56
9.22
17.34
23.63
28.08
30.63
31.22
29.85
26.69
22.12
16.77
11.33
6.50
2.78
0.49
-0.31
0.23
1.78
3.92
6.24
8.38
10.12
11.32
11.90
11.79
10.89
9.10
6.44
3.04
-0.83
-4.86
-8.76
-12.40
-15.80
-19.04
-22.26
-25.63
-29.25
-33.22
-37.49
-41.76
-45.37
-47.37
-46.74
-42.75
-35.31
-25.01
-13.03
-0.71
10.76
20.62
28.52
34.35
38.13
39.89
39.73
37.84
34.57
30.32
25.55
20.68
16.17
12.41
9.77
8.46
8.54
9.78
11.80
14.12
16.25
17.84
18.69
18.78
18.15
16.86
14.94
12.34
9.05
5.13
0.80
-3.62
-7.79
-11.52
-14.80
-17.76
-20.64
-23.66
-26.96
-30.61
-34.55
-38.47
-41.80
-43.72
-43.35
-40.01
-33.53
-24.32
-13.28
-1.59
9.61
19.43
27.28
32.87
36.16
37.28
36.50
34.18
30.74
26.57
22.13
17.86
14.22
11.61
10.30
10.29
11.40
13.24
15.41
17.56
19.41
20.78
21.51
21.48
20.61
18.87
16.32
13.10
9.40
5.37
1.21
-2.93
-6.91
-10.59
-13.89
-16.79
-19.37
-21.79
-24.29
-27.11
-30.48
-34.39
-38.54
-42.29
-44.75
-44.97
-42.30
-36.57
-28.18
-18.03
-7.22
3.20
12.45
20.08
25.84
29.66
31.51
31.47
29.73
26.68
22.81
18.67
14.78
11.53
9.20
7.90
7.62
8.25
9.58
11.35
13.26
14.96
16.12
16.44
15.73
14.02
11.50
8.55
5.53
2.67
0.01
-2.59
-5.36
-8.40
-11.70
-15.09
-18.33
-21.23
-23.68
-25.74
-27.58
-29.46
-31.56
-33.89
-36.12
-37.59
-37.46
-34.94
-29.52
-21.21
-10.54
1.51
13.72
24.89
34.05
40.66
44.69
46.50
46.62
45.52
43.46
40.56
36.95
32.99
29.27
26.44
24.97
24.96
26.16
28.09
30.25
32.22
33.72
34.55
34.51
33.44
31.24
27.95
23.67
18.61
12.96
6.90
0.55
-6.08
-13.02
-20.31
-27.96
-35.88
-43.90
-51.84
-59.54
-66.89
-73.89
-80.36
-85.95
-90.12
-92.31
-92.14
-89.62
-85.15
-79.34
-72.99
-66.62
-60.53
-54.78
-49.34
-44.24
-39.56
-35.41
-31.55
-27.90
-23.93
-18.94
-12.37
-3.93
6.30
17.88
30.27
43.29
56.13
68.57
80.42
91.39
101.10
109.15
115.27
119.49
122.75
124.78
126.03
126.63
126.30
124.55
120.77
114.55
105.62
94.70
80.96
64.71
46.60
27.65
9.25
-7.17
-20.46
-34.92
-44.04
-49.96
-53.91
-56.98
-60.00
-63.42
-67.36
-71.70
-76.13
-79.48
-82.27
-84.12
-84.85
-84.44
-83.04
-80.91
-78.30
-75.37
-71.47
-66.93
-61.14
-53.45
-43.55
-31.60
-18.34
-4.87
7.62
18.57
27.03
32.98
36.78
38.98
40.14
40.66
40.71
40.18
38.95
36.41
32.29
26.51
19.22
10.90
2.32
-5.46
-11.18
-13.61
-12.04
-6.34
2.86
14.34
26.65
38.41
48.53
56.32
61.42
63.73
63.34
60.61
56.14
50.70
44.99
39.57
34.68
30.32
26.37
22.62
18.98
15.46
12.18
9.32
7.13
5.94
6.08
7.72
10.62
14.20
17.64
20.17
21.13
20.19
17.46
13.37
8.38
2.80
-3.23
-9.65
-16.38
-23.59
-31.44
-39.80
-48.13
-55.58
-61.19
-63.99
-63.24
-58.73
-51.34
-42.70
-34.64
-28.55
-25.30
-25.20
-28.19
-34.09
-40.44
-45.04
-47.11
-47.60
-47.58
-47.30
-46.25
-43.68
-39.06
-32.19
-23.75
-14.97
-7.40
-2.41
-1.12
-3.98
-10.27
-18.31
-25.98
-31.75
-34.98
-36.61
-37.05
-37.04
-37.36
-38.31
-39.83
-41.50
-42.82
-43.30
-42.53
-40.09
-36.02
-30.61
-24.01
-16.52
-8.57
-0.85
5.91
11.25
15.29
18.72
20.78
21.78
22.13
21.96
21.01
18.79
14.95
9.50
2.77
-4.64
-11.59
-17.14
-20.71
-22.02
-21.09
-17.96
-12.90
-6.51
0.45
7.89
15.48
22.68
28.86
33.49
36.84
39.42
41.71
44.05
47.60
52.64
58.33
63.13
65.37
64.81
61.85
57.27
52.28
49.74
51.57
57.88
67.27
77.30
86.98
95.48
102.02
106.33
110.42
115.60
121.49
126.46
128.27
127.10
123.76
119.23
102.45
70.46
29.91
-8.23
-31.91
-45.48
-53.17
-57.19
-59.99
-61.87
-60.80
-55.77
-47.79
-39.20
-32.91
-29.39
-28.58
-30.36
-34.37
-38.84
-42.77
-46.52
-51.19
-58.02
-66.04
-73.73
-79.62
-82.41
-80.54
-73.61
-62.72
-49.90
-37.53
-26.66
-17.85
-11.36
-7.16
-4.62
-3.20
-2.59
-2.48
-2.45
-1.43
1.54
6.89
14.42
23.49
33.02
41.86
49.07
54.02
56.62
56.95
55.24
51.83
47.18
41.78
36.00
30.02
23.79
17.21
10.34
3.47
-2.96
-8.51
-13.06
-16.86
-20.46
-24.43
-29.02
-33.93
-38.32
-41.03
-41.02
-37.76
-31.47
-23.09
-13.95
-5.37
1.73
6.90
10.14
11.64
11.64
10.33
7.95
4.78
1.12
-2.82
-6.97
-11.41
-16.17
-21.07
-25.65
-29.22
-31.13
-31.00
-28.91
-25.40
-21.32
-17.56
-14.80
-13.42
-13.50
-14.84
-17.19
-20.27
-23.87
-27.85
-32.14
-36.72
-41.54
-46.44
-51.09
-54.90
-57.09
-56.87
-53.70
-47.58
-39.10
-29.34
-19.50
-10.59
-3.08
3.00
7.95
12.03
15.35
17.82
19.35
19.95
19.76
18.99
17.77
16.13
14.10
11.91
10.00
8.99
9.38
11.35
14.55
18.20
21.36
23.23
23.41
21.94
19.18
15.63
11.74
7.85
4.12
0.58
-2.91
-6.57
-10.61
-15.05
-19.58
-23.45
-25.68
-25.36
-21.98
-15.68
-7.22
2.23
11.50
19.68
26.28
31.19
34.52
36.49
37.32
37.23
36.42
35.10
33.47
31.62
29.57
27.22
24.51
21.47
18.35
15.54
13.41
12.18
11.76
11.74
11.57
10.75
9.01
6.40
3.18
-0.26
-3.63
-6.78
-9.71
-12.60
-15.62
-18.94
-22.61
-26.47
-30.15
-33.03
-34.40
-33.64
-30.46
-24.99
-17.80
-9.73
-1.67
5.67
11.86
16.72
20.25
22.49
23.47
23.20
21.77
19.35
16.21
12.69
9.14
5.84
2.95
0.54
-1.39
-2.87
-3.94
-4.63
-5.05
-5.34
-5.74
-6.48
-7.73
-9.51
-11.75
-14.27
-16.87
-19.42
-21.85
-24.19
-26.56
-29.16
-32.19
-35.72
-39.53
-42.99
-45.19
-45.12
-42.00
-35.57
-26.13
-14.52
-1.76
11.14
23.38
34.34
43.52
50.51
55.06
57.14
57.03
55.30
52.61
49.57
46.48
43.43
40.29
36.96
33.45
29.94
26.66
23.77
21.31
19.13
17.04
14.86
12.45
9.86
7.19
4.67
2.44
0.58
-1.01
-2.59
-4.52
-7.13
-10.58
-14.72
-19.05
-22.85
-25.29
-25.73
-23.82
-19.60
-13.53
-6.35
1.09
7.98
13.72
17.93
20.53
21.65
21.56
20.67
19.40
18.16
17.27
16.84
16.77
16.80
16.58
15.84
14.54
12.89
11.27
10.09
9.55
9.56
9.76
9.66
8.84
7.09
4.49
1.30
-2.12
-5.48
-8.57
-11.40
-14.11
-16.97
-20.29
-24.34
-29.07
-34.08
-38.54
-41.43
-41.84
-39.32
-34.05
-26.82
-18.74
-10.88
-4.02
1.43
5.38
7.89
9.06
9.03
7.98
6.15
3.79
1.13
-1.71
-4.65
-7.66
-10.63
-13.41
-15.83
-17.70
-18.95
-19.56
-19.62
-19.34
-19.00
-18.86
-19.12
-19.83
-20.88
-22.05
-23.15
-24.10
-24.93
-25.82
-26.98
-28.65
-30.99
-34.04
-37.60
-41.16
-43.95
-45.08
-43.86
-40.01
-33.80
-25.92
-17.33
-8.91
-1.36
4.93
9.80
13.26
15.42
16.38
16.27
15.23
13.42
10.98
8.12
5.00
1.77
-1.41
-4.38
-6.92
-8.75
-9.62
-9.34
-8.00
-5.91
-3.59
-1.62
-0.45
-0.23
-0.90
-2.16
-3.76
-5.48
-7.26
-9.20
-11.42
-14.13
-17.48
-21.52
-26.09
-30.66
-34.42
-36.39
-35.72
-32.02
-25.53
-17.04
-7.68
1.41
9.40
15.85
20.64
23.88
25.72
26.28
25.73
24.24
22.03
19.35
16.38
13.21
9.81
6.14
2.26
-1.59
-5.04
-7.70
-9.34
-10.06
-10.28
-10.60
-11.65
-13.78
-17.04
-21.10
-25.47
-29.60
-33.08
-35.71
-37.57
-38.98
-40.41
-42.33
-44.97
-48.16
-51.24
-53.25
-53.25
-50.65
-45.50
-38.37
-30.01
-21.03
-11.66
-1.84
8.49
19.10
29.40
38.55
45.80
50.70
53.22
53.59
52.09
48.97
44.43
38.80
32.55
26.32
20.79
16.42
13.33
11.32
9.93
8.65
7.12
5.21
2.98
0.64
-1.62
-3.75
-5.81
-8.01
-10.65
-14.05
-18.42
-23.71
-29.47
-34.87
-38.75
-39.92
-37.57
-31.51
-22.32
-11.14
0.67
11.86
21.61
29.50
35.43
39.43
41.63
42.15
41.21
39.04
35.93
32.17
28.03
23.78
19.65
15.90
12.77
10.47
9.13
8.76
9.16
9.97
10.70
10.84
10.09
8.38
5.93
3.10
0.25
-2.46
-5.06
-7.86
-11.27
-15.65
-21.08
-27.16
-32.97
-37.23
-38.64
-36.30
-30.08
-20.63
-9.16
2.92
14.40
24.42
32.49
38.39
42.05
43.54
43.04
40.90
37.58
33.55
29.22
24.89
20.74
16.89
13.45
10.57
8.46
7.30
7.18
7.96
9.23
10.44
10.99
10.49
8.86
6.37
3.46
0.54
-2.21
-4.89
-7.90
-11.72
-16.68
-22.74
-29.34
-35.45
-39.78
-41.11
-38.65
-32.31
-22.72
-11.03
1.33
13.07
23.21
31.20
36.85
40.20
41.40
40.67
38.29
34.65
30.20
25.44
20.81
16.66
13.20
10.54
8.72
7.71
7.51
8.02
9.05
10.28
11.30
11.68
11.07
9.39
6.77
3.61
0.34
-2.70
-5.43
-8.06
-11.01
-14.78
-19.67
-25.63
-32.10
-38.03
-42.05
-42.83
-39.52
-32.06
-21.27
-8.57
4.42
16.36
26.42
34.30
39.98
43.51
44.87
44.08
41.33
37.06
31.93
26.67
21.87
17.91
14.92
12.89
11.76
11.41
11.69
12.39
13.29
14.11
14.63
14.64
13.99
12.58
10.36
7.42
3.91
0.09
-3.75
-7.43
-10.93
-14.37
-18.02
-22.19
-27.07
-32.68
-38.67
-44.27
-48.39
-49.79
-47.54
-41.32
-31.59
-19.51
-6.56
5.88
16.82
25.77
32.63
37.39
40.06
40.60
39.04
35.65
30.95
25.67
20.59
16.35
13.32
11.54
10.81
10.81
11.26
11.97
12.86
13.85
14.79
15.33
15.12
13.85
11.41
7.99
3.99
-0.14
-4.05
-7.55
-10.72
-13.74
-16.89
-20.46
-24.73
-29.83
-35.63
-41.61
-46.75
-49.72
-49.27
-44.62
-35.84
-23.89
-10.32
3.21
15.37
25.42
33.13
38.57
41.83
42.90
41.82
38.77
34.25
29.02
23.93
19.67
16.70
15.11
14.76
15.36
16.56
18.03
19.51
20.78
21.69
22.15
22.05
21.26
19.64
17.09
13.64
9.48
4.97
0.45
-3.83
-7.75
-11.36
-14.78
-18.12
-21.56
-25.29
-29.48
-34.24
-39.36
-44.20
-47.67
-48.52
-45.71
-38.88
-28.54
-15.94
-2.72
9.61
20.00
28.01
33.62
37.03
38.42
37.93
35.75
32.27
28.08
23.96
20.58
18.39
17.49
17.62
18.39
19.40
20.43
21.43
22.45
23.53
24.59
25.41
25.67
25.05
23.39
20.76
17.46
13.92
10.57
7.63
5.10
2.81
0.48
-2.10
-5.00
-8.15
-11.41
-14.61
-17.64
-20.44
-23.04
-25.52
-28.08
-31.03
-34.67
-39.22
-44.58
-50.19
-55.00
-57.74
-57.22
-52.75
-44.42
-33.09
-20.12
-7.00
5.02
15.14
23.01
28.58
31.90
33.11
32.41
30.11
26.71
22.85
19.17
16.23
14.34
13.58
13.82
14.87
16.48
18.47
20.60
22.67
24.42
25.60
26.03
25.64
24.47
22.65
20.36
17.83
15.24
12.70
10.28
7.96
5.74
3.56
1.41
-0.71
-2.83
-4.94
-7.06
-9.14
-11.08
-12.80
-14.27
-15.59
-16.96
-18.64
-20.81
-23.52
-26.62
-29.85
-32.90
-35.62
-37.99
-40.19
-42.52
-45.27
-48.68
-52.84
-57.52
-62.17
-65.81
-67.25
-65.37
-59.56
-49.94
-37.46
-23.59
-9.95
2.19
12.07
19.48
24.57
27.63
28.97
28.91
27.83
26.26
24.77
23.89
23.96
25.08
27.06
29.50
32.00
34.21
36.00
37.36
38.40
39.17
39.65
39.70
39.15
37.86
35.82
33.15
30.09
26.90
23.85
21.08
18.62
16.36
14.08
11.59
8.82
5.84
2.85
0.14
-2.14
-4.00
-5.68
-7.52
-9.84
-12.76
-16.19
-19.84
-23.37
-26.47
-29.03
-31.11
-32.91
-34.73
-36.93
-39.85
-43.70
-48.40
-53.39
-57.66
-59.91
-58.92
-54.01
-45.30
-33.69
-20.58
-7.44
4.58
14.76
22.84
28.70
32.36
33.79
33.09
30.54
26.68
22.24
17.98
14.53
12.25
11.14
10.95
11.35
12.11
13.13
14.46
16.20
18.29
20.48
22.28
23.14
22.61
20.53
17.16
13.10
9.11
5.87
3.66
2.31
1.22
-0.39
-3.16
-7.26
-12.33
-17.53
-21.91
-24.83
-26.25
-26.91
-28.11
-31.25
-37.38
-46.83
-58.99
-72.40
-85.03
-94.68
-99.50
-98.40
-91.40
-79.60
-64.89
-49.34
-34.69
-21.99
-11.55
-3.28
3.03
7.49
10.11
11.04
10.69
9.74
8.91
8.78
9.53
11.02
12.95
15.00
17.01
18.93
20.71
22.16
22.98
22.83
21.54
19.15
15.94
12.30
8.56
4.91
1.48
-1.71
-4.63
-7.23
-9.50
-11.50
-13.34
-15.21
-17.34
-19.96
-23.24
-27.15
-31.30
-34.95
-37.08
-36.73
-33.24
-26.56
-17.25
-6.36
4.92
15.46
24.41
31.26
35.80
38.04
38.18
36.60
33.81
30.41
26.97
23.92
21.52
19.78
18.56
17.69
17.11
16.91
17.25
18.22
19.70
21.30
22.47
22.70
21.76
19.77
17.11
14.26
11.54
9.01
6.49
3.71
0.49
-3.16
-7.08
-11.01
-14.69
-18.00
-20.90
-23.50
-26.02
-28.76
-32.02
-35.94
-40.32
-44.55
-47.61
-48.38
-45.97
-40.04
-31.00
-19.88
-7.99
3.38
13.29
21.21
26.98
30.66
32.40
32.42
31.02
28.58
25.55
22.37
19.47
17.15
15.55
14.71
14.48
14.63
14.87
14.93
14.65
14.00
13.00
11.68
10.03
7.92
5.18
1.70
-2.48
-7.11
-11.79
-16.13
-19.90
-23.14
-26.03
-28.76
-31.30
-33.36
-34.48
-34.26
-32.62
-29.87
-26.68
-23.87
-22.17
-22.12
-23.93
-27.49
-32.26
-37.28
-41.19
-42.61
-40.43
-34.22
-24.42
-12.20
0.87
13.34
24.19
32.97
39.65
44.41
47.46
49.04
49.44
49.10
48.63
48.61
49.57
51.76
55.19
59.65
64.80
70.27
75.71
80.80
85.24
88.75
91.11
92.12
91.65
89.61
86.04
81.10
75.14
68.59
61.92
55.46
49.37
43.58
37.92
32.27
26.67
21.36
16.62
12.70
9.57
7.01
4.67
2.20
-0.54
-3.51
-6.52
-9.38
-11.91
-14.11
-16.08
-17.97
-19.99
-22.22
-24.62
-27.02
-29.23
-31.11
-32.74
-34.42
-36.62
-39.76
-44.03
-49.15
-54.36
-58.46
-60.07
-58.12
-52.13
-42.51
-30.43
-17.45
-5.13
5.40
13.63
19.48
23.15
24.89
24.91
23.46
20.86
17.54
13.99
10.66
7.86
5.75
4.38
3.73
3.78
4.48
5.74
7.39
9.20
10.95
12.42
13.48
14.03
13.98
13.29
11.90
9.85
7.28
4.40
1.45
-1.40
-4.08
-6.59
-8.99
-11.34
-13.66
-15.98
-18.39
-20.96
-23.65
-26.28
-28.65
-30.60
-32.07
-33.19
-34.28
-35.90
-38.53
-42.26
-46.59
-50.48
-52.56
-51.56
-46.78
-38.33
-27.33
-15.31
-3.66
6.67
15.24
21.93
26.85
30.17
32.05
32.04
29.97
26.22
21.53
16.54
11.54
6.77
2.56
-0.50
-2.81
-4.37
-4.50
-2.57
1.03
4.95
7.58
7.85
5.53
-0.51
-10.11
-21.37
-31.69
-39.69
-45.59
-50.62
-56.24
-63.66
-75.86
-94.12
-116.77
-140.16
-160.92
-176.86
-186.88
-190.81
-174.75
-135.38
-83.41
-35.09
0.29
22.47
35.44
43.36
48.89
52.49
52.31
47.32
39.00
30.46
24.08
20.53
19.19
18.87
18.62
15.92
9.46
0.34
-8.74
-15.40
-18.36
-17.34
-12.78
-5.53
2.23
8.80
13.81
17.90
21.76
25.85
30.58
36.43
43.75
51.99
60.21
67.60
73.54
77.64
79.87
80.77
81.23
82.21
84.17
87.17
91.07
95.56
100.13
104.16
106.95
107.83
106.25
101.87
94.68
85.06
73.79
61.96
50.71
41.01
33.40
27.89
24.06
21.23
18.76
16.22
13.50
10.71
8.16
6.17
5.03
4.87
5.56
6.67
7.51
7.33
5.55
2.02
-2.91
-8.54
-14.05
-18.81
-22.60
-25.54
-28.03
-30.55
-33.55
-37.35
-42.06
-47.45
-52.91
-57.42
-59.74
-58.86
-54.43
-47.13
-38.61
-31.00
-26.24
-25.33
-28.00
-33.07
-39.00
-44.67
-49.69
-54.29
-58.71
-62.69
-65.29
-65.18
-61.30
-53.47
-42.54
-30.10
-17.87
-7.19
1.31
7.61
12.01
14.82
16.22
16.28
15.12
12.99
10.33
7.66
5.43
3.92
3.16
3.03
3.36
4.03
4.96
6.09
7.37
8.68
9.94
11.02
11.79
12.08
11.69
10.47
8.38
5.65
2.64
-0.23
-2.71
-4.87
-6.99
-9.43
-12.38
-15.73
-19.15
-22.24
-24.75
-26.67
-28.20
-29.63
-31.23
-33.21
-35.73
-38.82
-42.37
-45.94
-48.80
-50.00
-48.64
-44.22
-36.85
-27.28
-16.67
-6.21
3.18
11.05
17.36
22.31
26.11
28.87
30.53
31.00
30.27
28.50
26.04
23.36
20.97
19.27
18.43
18.46
19.17
20.28
21.52
22.68
23.64
24.32
24.65
24.53
23.82
22.41
20.31
17.63
14.63
11.58
8.70
6.02
3.44
0.75
-2.19
-5.44
-8.85
-12.26
-15.47
-18.42
-21.16
-23.76
-26.29
-28.78
-31.21
-33.68
-36.41
-39.77
-43.99
-48.99
-54.14
-58.36
-60.43
-59.48
-55.27
-48.36
-39.84
-30.94
-22.68
-15.62
-9.95
-5.65
-2.77
-1.45
-1.91
-4.21
-8.15
-13.20
-18.58
-23.43
-26.99
-28.79
-28.65
-26.74
-23.47
-19.32
-14.76
-10.08
-5.31
-0.23
5.51
12.27
20.21
29.20
38.83
48.47
57.43
65.09
70.95
74.71
76.27
75.72
73.37
69.67
65.21
60.55
56.13
52.19
48.72
45.60
42.66
39.75
36.77
33.64
30.21
26.26
21.47
15.57
8.44
0.24
-8.50
-16.93
-24.07
-28.99
-31.09
-30.27
-26.90
-21.74
-15.71
-9.68
-4.34
-0.17
2.63
4.01
4.05
2.90
0.78
-2.07
-5.34
-8.65
-11.60
-13.83
-15.11
-15.39
-14.74
-13.27
-11.06
-8.10
-4.42
-0.11
4.60
9.39
13.94
18.02
21.52
24.46
26.87
28.74
30.05
30.81
31.02
30.74
30.05
28.98
27.53
25.68
23.37
20.54
17.22
13.46
9.39
5.18
0.96
-3.19
-7.31
-11.54
-16.03
-20.89
-26.05
-31.16
-35.63
-38.66
-39.49
-37.60
-32.95
-25.96
-17.51
-8.61
-0.21
7.05
12.83
17.07
19.84
21.21
21.25
20.04
17.73
14.63
11.17
7.84
5.10
3.34
2.81
3.62
5.80
9.18
13.45
18.13
22.65
26.41
29.01
30.25
30.22
29.18
27.47
25.40
23.17
20.81
18.22
15.17
11.45
6.94
1.75
-3.79
-9.21
-14.04
-17.99
-21.02
-23.36
-25.41
-27.58
-30.23
-33.52
-37.38
-41.44
-45.09
-47.57
-48.08
-46.04
-41.23
-33.88
-24.63
-14.40
-4.19
5.14
12.98
19.03
23.23
25.73
26.69
26.31
24.76
22.23
18.97
15.31
11.64
8.37
5.87
4.43
4.17
5.04
6.80
9.09
11.46
13.49
14.83
15.29
14.82
13.52
11.61
9.32
6.84
4.25
1.50
-1.49
-4.79
-8.37
-12.11
-15.81
-19.29
-22.45
-25.29
-27.94
-30.62
-33.61
-37.12
-41.14
-45.35
-49.01
-51.14
-50.77
-47.32
-40.83
-32.00
-21.94
-11.80
-2.47
5.59
12.23
17.47
21.27
23.48
23.99
22.85
20.35
16.99
13.30
9.71
6.51
3.88
1.91
0.73
0.36
0.76
1.71
2.91
4.07
4.99
5.56
5.79
5.65
5.12
4.11
2.52
0.33
-2.43
-5.65
-9.17
-12.82
-16.40
-19.79
-22.86
-25.58
-28.06
-30.53
-33.32
-36.66
-40.51
-44.40
-47.43
-48.45
-46.49
-41.09
-32.53
-21.81
-10.25
0.81
10.42
18.12
23.83
27.70
29.93
30.70
30.16
28.54
26.11
23.23
20.21
17.31
14.71
12.52
10.85
9.87
9.72
10.46
11.98
13.94
15.84
17.16
17.57
17.02
15.71
13.97
12.00
9.88
7.45
4.59
1.26
-2.40
-6.10
-9.60
-12.75
-15.63
-18.41
-21.35
-24.67
-28.55
-33.02
-37.87
-42.56
-46.17
-47.61
-45.89
-40.57
-31.96
-21.05
-9.23
2.14
12.09
20.10
26.08
30.11
32.35
32.93
32.10
30.15
27.46
24.43
21.40
18.57
16.13
14.27
13.12
12.84
13.46
14.90
16.94
19.25
21.41
23.02
23.76
23.48
22.20
20.10
17.44
14.44
11.25
7.94
4.51
0.98
-2.64
-6.27
-9.80
-13.14
-16.18
-18.92
-21.45
-24.00
-26.89
-30.43
-34.66
-39.20
-43.23
-45.56
-45.05
-40.98
-33.38
-22.99
-11.13
0.81
11.66
20.78
27.93
33.15
36.55
38.16
38.01
36.23
33.15
29.25
25.12
21.29
18.12
15.79
14.38
13.90
14.28
15.40
17.08
19.04
20.99
22.58
23.50
23.51
22.49
20.51
17.80
14.73
11.61
8.61
5.68
2.60
